1509708871.00
64.000000
-0.00
-0.00
-0.00
-0.00
-0.00
-0.00
-0.00
-0.00
-0.00
-0.00
0.00
0.01
0.01
-0.00
-0.03
-0.05
-0.05
0.00
0.13
0.36
0.66
1.01
1.37
1.72
2.06
2.40
2.78
3.23
3.79
4.44
5.12
5.79
6.39
6.91
7.39
7.89
8.49
9.30
10.30
11.39
12.46
13.43
14.30
15.22
16.36
17.91
20.12
22.86
25.88
28.89
31.66
34.18
36.71
39.66
43.41
48.45
54.56
61.32
68.10
74.42
80.14
85.56
91.34
98.16
106.84
117.20
128.64
140.23
151.09
160.82
169.67
178.87
187.38
197.98
211.91
229.61
249.82
269.13
282.43
284.47
271.65
243.46
203.02
155.02
104.36
54.30
5.97
-41.12
-88.01
-135.45
-183.54
-231.43
-277.84
-320.44
-355.96
-380.79
-392.20
-389.53
-374.57
-351.16
-323.60
-295.48
-268.94
-244.71
-222.78
-203.00
-185.31
-169.55
-155.27
-141.61
-127.82
-113.54
-99.02
-84.95
-72.21
-61.36
-52.41
-44.91
-38.11
-31.37
-24.38
-17.24
-10.35
-4.21
0.83
4.65
7.45
9.60
11.51
13.48
15.62
17.83
19.84
21.39
22.34
22.71
22.73
22.69
22.76
22.98
23.18
23.17
22.84
22.22
21.50
20.85
20.37
20.02
19.69
19.28
18.75
18.15
17.55
16.95
16.36
15.76
15.18
14.68
14.28
13.94
13.56
13.04
12.34
11.51
10.71
10.06
9.64
9.42
9.32
9.21
9.03
8.75
8.43
8.14
7.96
7.92
8.01
8.16
8.32
8.43
8.45
8.39
8.28
8.15
8.06
8.00
7.93
7.80
7.56
7.21
6.81
6.44
6.17
6.00
5.85
5.59
5.13
4.46
3.67
2.90
2.31
1.96
1.83
1.86
1.94
1.98
1.93
1.77
1.52
1.23
0.95
0.71
0.51
0.31
0.10
-0.14
-0.35
-0.51
-0.61
-0.72
-0.91
-1.24
-1.71
-2.23
-2.68
-2.97
-3.09
-3.06
-2.95
-2.78
-2.55
-2.25
-1.90
-1.57
-1.33
-1.26
-1.30
-1.37
-1.33
-1.08
-0.59
0.05
0.72
1.28
1.66
1.88
2.01
2.13
2.28
2.47
2.68
2.93
3.25
3.64
4.06
4.43
4.64
4.63
4.45
4.26
4.24
4.51
5.08
5.78
6.39
6.70
6.65
6.30
5.85
5.56
5.61
6.04
6.79
7.68
8.54
9.26
9.84
10.36
10.90
11.52
12.23
12.93
13.46
13.58
12.97
11.36
8.61
4.91
0.71
-3.33
-6.62
-8.81
-9.91
-10.19
-10.01
-9.65
-9.22
-8.74
-8.22
-7.72
-7.31
-7.01
-6.78
-6.54
-6.23
-5.87
-5.51
-5.18
-4.87
-4.52
-4.12
-3.71
-3.37
-3.12
-2.95
-2.77
-2.52
-2.17
-1.80
-1.49
-1.27
-1.11
-0.96
-0.76
-0.55
-0.37
-0.28
-0.28
-0.29
-0.25
-0.09
0.16
0.47
0.80
1.11
1.35
1.46
1.39
1.14
0.78
0.40
0.13
0.04
0.12
0.31
0.54
0.77
0.98
1.18
1.34
1.40
1.29
0.97
0.50
0.01
-0.33
-0.40
-0.19
0.24
0.73
1.15
1.43
1.57
1.62
1.61
1.56
1.42
1.17
0.84
0.51
0.25
0.14
0.15
0.21
0.22
0.16
0.08
0.04
0.10
0.25
0.40
0.47
0.39
0.22
0.04
-0.06
-0.05
0.04
0.15
0.23
0.29
0.38
0.56
0.82
1.09
1.26
1.24
1.01
0.64
0.25
-0.02
-0.08
0.09
0.45
0.92
1.38
1.75
1.95
1.99
1.92
1.85
1.88
2.06
2.37
2.69
2.90
2.91
2.74
2.53
2.48
2.78
3.49
4.49
5.50
6.23
6.48
6.30
5.96
5.86
6.35
7.51
9.10
10.66
11.69
11.96
11.62
11.20
11.35
12.57
14.91
17.93
20.93
23.43
25.38
27.28
29.96
34.14
40.15
47.91
57.05
66.87
76.09
82.58
83.62
76.77
61.14
38.29
12.00
-13.01
-32.93
-46.19
-53.55
-57.08
-58.67
-59.16
-58.30
-55.64
-51.28
-46.18
-41.68
-38.71
-37.30
-36.65
-35.68
-33.58
-30.22
-26.18
-22.32
-19.38
-17.63
-16.82
-16.34
-15.55
-14.09
-12.00
-9.65
-7.54
-6.00
-5.10
-4.63
-4.24
-3.62
-2.66
-1.49
-0.38
0.41
0.72
0.58
0.12
-0.48
-1.04
-1.43
-1.62
-1.68
-1.74
-1.95
-2.44
-3.20
-4.12
-5.00
-5.65
-6.00
-6.07
-6.01
-5.97
-6.05
-6.28
-6.61
-6.94
-7.20
-7.34
-7.36
-7.30
-7.20
-7.09
-6.95
-6.69
-6.24
-5.56
-4.71
-3.75
-2.75
-1.72
-0.65
0.45
1.49
2.32
2.83
3.06
3.16
3.34
3.72
4.24
4.68
4.82
4.56
4.03
3.49
3.20
3.26
3.52
3.74
3.63
3.09
2.16
1.06
0.04
-0.72
-1.17
-1.41
-1.64
-2.01
-2.57
-3.22
-3.78
-4.08
-4.04
-3.70
-3.19
-2.61
-2.09
-1.68
-1.42
-1.34
-1.43
-1.64
-1.88
-2.00
-1.92
-1.54
-0.81
0.30
1.76
3.52
5.42
7.26
8.88
10.20
11.31
12.35
13.47
14.71
15.92
16.82
17.09
16.51
15.05
12.86
10.26
7.62
5.23
3.30
1.91
1.06
0.67
0.62
0.71
0.72
0.44
-0.23
-1.22
-2.31
-3.22
-3.73
-3.82
-3.64
-3.44
-3.44
-3.72
-4.20
-4.71
-5.07
-5.18
-5.04
-4.69
-4.22
-3.70
-3.20
-2.76
-2.45
-2.28
-2.23
-2.23
-2.19
-2.02
-1.71
-1.28
-0.80
-0.31
0.15
0.61
1.08
1.53
1.88
2.05
1.99
1.76
1.45
1.18
1.02
0.95
0.91
0.82
0.68
0.49
0.33
0.20
0.10
-0.03
-0.20
-0.41
-0.60
-0.69
-0.65
-0.49
-0.29
-0.14
-0.10
-0.19
-0.33
-0.40
-0.35
-0.16
0.06
0.18
0.12
-0.08
-0.32
-0.49
-0.55
-0.57
-0.64
-0.78
-0.94
-0.95
-0.75
-0.37
0.00
0.17
0.04
-0.33
-0.74
-0.96
-0.93
-0.69
-0.40
-0.21
-0.17
-0.23
-0.32
-0.36
-0.34
-0.31
-0.31
-0.36
-0.42
-0.42
-0.33
-0.18
-0.04
0.02
-0.05
-0.20
-0.36
-0.43
-0.36
-0.15
0.13
0.43
0.67
0.82
0.85
0.77
0.60
0.37
0.13
-0.08
-0.25
-0.35
-0.36
-0.25
0.00
0.38
0.81
1.18
1.35
1.24
0.83
0.20
-0.48
-1.06
-1.43
-1.53
-1.38
-1.02
-0.50
0.11
0.75
1.31
1.70
1.85
1.74
1.44
1.05
0.67
0.37
0.20
0.16
0.24
0.41
0.62
0.81
0.89
0.83
0.63
0.38
0.15
0.01
-0.03
0.01
0.08
0.15
0.23
0.29
0.31
0.30
0.24
0.17
0.13
0.14
0.18
0.19
0.11
-0.10
-0.42
-0.77
-1.07
-1.23
-1.22
-1.07
-0.82
-0.57
-0.39
-0.32
-0.38
-0.53
-0.71
-0.84
-0.86
-0.73
-0.47
-0.13
0.22
0.49
0.62
0.57
0.39
0.16
-0.04
-0.13
-0.07
0.10
0.32
0.52
0.65
0.69
0.68
0.64
0.56
0.43
0.19
-0.17
-0.59
-0.95
-1.11
-0.97
-0.56
0.00
0.53
0.87
0.99
0.93
0.80
0.68
0.57
0.41
0.13
-0.25
-0.63
-0.84
-0.75
-0.35
0.21
0.70
0.93
0.82
0.44
-0.04
-0.44
-0.69
-0.81
-0.90
-1.02
-1.20
-1.37
-1.44
-1.31
-0.97
-0.47
0.10
0.59
0.91
1.00
0.87
0.58
0.23
-0.06
-0.25
-0.32
-0.32
-0.29
-0.26
-0.21
-0.08
0.16
0.48
0.77
0.91
0.83
0.55
0.21
0.00
0.02
0.26
0.58
0.82
0.87
0.77
0.59
0.42
0.31
0.24
0.18
0.16
0.20
0.32
0.48
0.57
0.50
0.21
-0.20
-0.60
-0.83
-0.83
-0.60
-0.24
0.13
0.38
0.47
0.40
0.26
0.14
0.13
0.24
0.44
0.62
0.69
0.63
0.47
0.31
0.24
0.28
0.39
0.51
0.58
0.59
0.61
0.69
0.88
1.18
1.51
1.77
1.84
1.68
1.30
0.82
0.38
0.12
0.10
0.27
0.50
0.68
0.73
0.62
0.39
0.13
-0.10
-0.26
-0.35
-0.41
-0.49
-0.65
-0.93
-1.31
-1.72
-2.05
-2.21
-2.18
-1.98
-1.69
-1.39
-1.10
-0.86
-0.66
-0.50
-0.42
-0.44
-0.54
-0.67
-0.76
-0.76
-0.67
-0.49
-0.29
-0.09
0.05
0.09
0.03
-0.13
-0.31
-0.43
-0.46
-0.40
-0.34
-0.38
-0.57
-0.89
-1.22
-1.44
-1.47
-1.34
-1.13
-0.92
-0.74
-0.56
-0.36
-0.12
0.12
0.30
0.38
0.34
0.20
-0.02
-0.29
-0.61
-0.94
-1.19
-1.27
-1.13
-0.79
-0.35
0.05
0.31
0.39
0.33
0.21
0.13
0.13
0.23
0.42
0.68
0.96
1.17
1.25
1.14
0.87
0.51
0.17
-0.03
-0.05
0.08
0.29
0.47
0.57
0.57
0.54
0.53
0.61
0.77
0.94
1.05
1.04
0.91
0.68
0.43
0.21
0.03
-0.07
-0.07
0.08
0.42
0.89
1.37
1.65
1.58
1.13
0.45
-0.25
-0.73
-0.89
-0.77
-0.50
-0.25
-0.11
-0.07
-0.09
-0.11
-0.06
0.08
0.27
0.47
0.64
0.76
0.84
0.90
0.93
0.89
0.72
0.38
-0.05
-0.44
-0.60
-0.46
-0.08
0.34
0.56
0.45
0.07
-0.41
-0.78
-0.89
-0.75
-0.50
-0.27
-0.18
-0.24
-0.43
-0.66
-0.93
-1.19
-1.44
-1.64
-1.73
-1.65
-1.42
-1.07
-0.68
-0.30
0.03
0.29
0.52
0.72
0.90
1.06
1.19
1.26
1.28
1.25
1.18
1.08
0.96
0.81
0.65
0.49
0.33
0.18
0.09
0.09
0.19
0.40
0.68
0.98
1.22
1.30
1.17
0.83
0.38
-0.06
-0.37
-0.49
-0.49
-0.45
-0.46
-0.54
-0.66
-0.77
-0.85
-0.89
-0.89
-0.87
-0.80
-0.67
-0.50
-0.33
-0.24
-0.26
-0.36
-0.46
-0.47
-0.36
-0.16
0.04
0.15
0.07
-0.18
-0.54
-0.91
-1.15
-1.22
-1.10
-0.86
-0.58
-0.31
-0.07
0.12
0.27
0.35
0.32
0.17
-0.07
-0.32
-0.50
-0.55
-0.45
-0.25
-0.01
0.22
0.44
0.63
0.82
0.98
1.10
1.14
1.08
0.92
0.70
0.48
0.32
0.25
0.27
0.37
0.49
0.61
0.68
0.68
0.59
0.43
0.25
0.09
0.00
-0.01
0.01
0.02
-0.04
-0.18
-0.37
-0.55
-0.68
-0.72
-0.69
-0.62
-0.53
-0.45
-0.39
-0.37
-0.42
-0.55
-0.71
-0.85
-0.88
-0.75
-0.47
-0.11
0.24
0.51
0.69
0.79
0.86
0.91
0.94
0.92
0.84
0.68
0.45
0.16
-0.17
-0.48
-0.72
-0.85
-0.90
-0.88
-0.87
-0.87
-0.86
-0.80
-0.68
-0.55
-0.48
-0.51
-0.59
-0.61
-0.44
-0.06
0.43
0.84
1.00
0.86
0.52
0.16
-0.03
0.02
0.24
0.52
0.73
0.78
0.70
0.57
0.44
0.37
0.35
0.33
0.26
0.14
-0.01
-0.13
-0.17
-0.13
-0.09
-0.15
-0.37
-0.72
-1.10
-1.34
-1.36
-1.16
-0.85
-0.54
-0.32
-0.16
-0.01
0.20
0.47
0.74
0.92
0.96
0.88
0.70
0.48
0.26
0.07
-0.04
-0.05
0.03
0.15
0.22
0.16
-0.02
-0.29
-0.50
-0.57
-0.41
-0.05
0.45
0.98
1.40
1.63
1.59
1.32
0.89
0.46
0.16
0.07
0.14
0.25
0.24
0.01
-0.41
-0.88
-1.25
-1.39
-1.30
-1.07
-0.78
-0.50
-0.24
0.03
0.31
0.54
0.68
0.66
0.51
0.29
0.06
-0.14
-0.33
-0.53
-0.73
-0.92
-1.04
-1.02
-0.84
-0.50
-0.06
0.43
0.90
1.31
1.63
1.85
1.97
1.95
1.80
1.50
1.09
0.64
0.24
-0.03
-0.15
-0.16
-0.13
-0.11
-0.13
-0.19
-0.29
-0.44
-0.64
-0.87
-1.08
-1.21
-1.20
-1.06
-0.84
-0.59
-0.34
-0.09
0.17
0.44
0.67
0.84
0.90
0.85
0.72
0.47
0.07
-0.48
-1.10
-1.67
-2.01
-2.01
-1.67
-1.14
-0.60
-0.21
-0.05
-0.07
-0.19
-0.32
-0.38
-0.34
-0.19
0.02
0.23
0.35
0.32
0.12
-0.17
-0.48
-0.72
-0.87
-0.98
-1.08
-1.17
-1.19
-1.05
-0.68
-0.11
0.53
1.02
1.20
1.01
0.55
0.04
-0.31
-0.37
-0.14
0.27
0.69
0.99
1.10
1.01
0.79
0.49
0.20
-0.01
-0.12
-0.11
-0.03
0.08
0.15
0.20
0.25
0.33
0.47
0.58
0.59
0.44
0.12
-0.25
-0.52
-0.60
-0.47
-0.25
-0.10
-0.11
-0.27
-0.46
-0.53
-0.39
-0.08
0.30
0.63
0.83
0.90
0.88
0.82
0.76
0.69
0.64
0.58
0.50
0.37
0.19
-0.05
-0.33
-0.59
-0.74
-0.72
-0.51
-0.17
0.18
0.44
0.52
0.44
0.29
0.18
0.17
0.25
0.33
0.31
0.17
-0.02
-0.13
-0.06
0.19
0.55
0.86
1.03
1.00
0.82
0.56
0.29
0.04
-0.18
-0.38
-0.56
-0.69
-0.76
-0.73
-0.61
-0.45
-0.26
-0.09
0.03
0.10
0.10
0.04
-0.07
-0.17
-0.20
-0.12
0.02
0.16
0.20
0.08
-0.15
-0.38
-0.48
-0.39
-0.17
0.05
0.11
-0.04
-0.34
-0.65
-0.82
-0.82
-0.69
-0.53
-0.45
-0.46
-0.51
-0.50
-0.37
-0.09
0.26
0.55
0.70
0.67
0.52
0.38
0.36
0.50
0.75
0.97
1.02
0.84
0.48
0.09
-0.18
-0.23
-0.08
0.16
0.37
0.48
0.50
0.44
0.33
0.14
-0.15
-0.50
-0.83
-0.99
-0.90
-0.57
-0.14
0.24
0.44
0.42
0.24
0.01
-0.15
-0.20
-0.15
-0.06
-0.03
-0.12
-0.35
-0.65
-0.90
-0.99
-0.90
-0.69
-0.47
-0.31
-0.21
-0.12
-0.01
0.13
0.26
0.32
0.34
0.35
0.40
0.50
0.56
0.46
0.16
-0.29
-0.72
-0.96
-0.94
-0.72
-0.45
-0.29
-0.28
-0.39
-0.49
-0.48
-0.31
-0.06
0.17
0.32
0.38
0.42
0.51
0.67
0.85
0.99
1.02
0.95
0.86
0.78
0.72
0.64
0.46
0.19
-0.13
-0.42
-0.58
-0.63
-0.60
-0.57
-0.59
-0.64
-0.70
-0.73
-0.76
-0.82
-0.94
-1.08
-1.21
-1.26
-1.23
-1.13
-1.01
-0.88
-0.71
-0.47
-0.11
0.32
0.75
1.06
1.18
1.08
0.80
0.40
0.00
-0.32
-0.49
-0.45
-0.17
0.32
0.91
1.49
1.94
2.18
2.20
2.08
1.92
1.85
1.95
2.27
2.70
3.09
3.27
3.10
2.62
2.00
1.51
1.45
1.94
2.92
4.10
5.12
5.67
5.61
5.02
4.14
3.23
2.49
1.97
1.60
1.31
1.04
0.87
0.88
1.17
1.71
2.37
3.01
3.49
3.79
3.98
4.15
4.34
4.44
4.25
3.54
2.16
0.13
-2.35
-4.98
-7.41
-9.40
-10.86
-11.82
-12.41
-12.74
-12.87
-12.83
-12.57
-12.12
-11.54
-10.87
-10.16
-9.38
-8.44
-7.30
-5.95
-4.48
-3.05
-1.76
-0.63
0.36
1.27
2.12
2.83
3.35
3.64
3.76
3.86
4.08
4.47
4.94
5.29
5.31
4.88
4.08
3.11
2.27
1.76
1.60
1.66
1.70
1.52
1.05
0.36
-0.38
-0.98
-1.35
-1.52
-1.65
-1.86
-2.21
-2.61
-2.86
-2.81
-2.39
-1.73
-1.04
-0.51
-0.21
-0.08
0.00
0.07
0.08
-0.11
-0.57
-1.24
-1.93
-2.39
-2.43
-2.03
-1.30
-0.48
0.21
0.62
0.74
0.60
0.30
-0.08
-0.47
-0.80
-1.04
-1.11
-0.97
-0.60
0.01
0.87
1.96
3.32
4.92
6.69
8.45
9.97
11.01
11.38
10.96
9.76
7.84
5.35
2.55
-0.22
-2.58
-4.22
-4.97
-4.92
-4.39
-3.84
-3.74
-4.44
-6.05
-8.41
-11.15
-13.75
-15.69
-16.59
-16.38
-15.33
-14.03
-13.21
-13.46
-14.95
-17.29
-19.66
-21.08
-20.86
-18.80
-15.26
-11.01
-6.84
-3.33
-0.72
1.02
2.01
2.34
2.07
1.33
0.46
-0.17
-0.25
0.20
0.87
1.26
1.10
0.55
0.12
0.42
1.70
3.61
5.38
6.19
5.65
3.97
1.84
0.06
-0.81
-0.60
0.58
2.48
4.89
7.63
10.45
13.00
14.83
15.60
15.27
14.10
12.61
11.27
10.32
9.61
8.76
7.38
5.21
2.31
-1.06
-4.56
-7.97
-11.26
-14.45
-17.51
-20.24
-22.26
-23.23
-23.02
-21.83
-20.14
-18.43
-17.00
-15.77
-14.33
-12.27
-9.32
-5.54
-1.23
3.20
7.40
11.04
13.85
15.53
15.87
14.81
12.46
9.05
4.91
0.28
-4.55
-9.21
-13.21
-16.06
-17.49
-17.78
-17.72
-18.39
-20.67
-24.81
-30.28
-36.11
-41.34
-45.49
-48.81
-52.01
-55.88
-60.88
-67.07
-74.07
-81.05
-86.69
-89.28
-86.95
-78.21
-62.51
-40.53
-14.26
13.52
40.05
63.41
83.02
99.49
113.92
127.15
139.19
149.45
157.48
163.57
168.90
174.52
179.91
181.91
175.08
153.65
114.63
60.17
-2.33
-62.37
-110.19
-140.08
-151.76
-149.39
-138.97
-125.89
-113.59
-103.67
-96.52
-91.77
-88.21
-83.63
-75.22
-60.64
-39.34
-13.33
13.31
36.07
51.64
58.97
59.17
54.60
47.80
40.86
35.23
31.75
30.78
32.08
34.85
37.89
39.99
40.34
38.68
35.39
31.24
27.10
23.69
21.35
20.03
19.30
18.55
17.21
15.01
12.03
8.70
5.59
3.14
1.45
0.27
-0.94
-2.76
-5.51
-9.11
-13.12
-16.83
-19.56
-20.79
-20.24
-17.85
-13.71
-8.05
-1.31
5.82
12.52
18.01
21.90
24.24
25.49
26.25
26.89
27.42
27.52
26.83
25.24
23.08
20.98
19.62
19.43
20.39
22.11
23.92
25.14
25.33
24.40
22.73
21.06
20.35
21.34
24.25
28.62
33.50
37.69
40.37
41.37
41.27
41.17
42.37
45.78
51.39
57.96
63.19
64.45
60.04
50.15
37.23
25.20
18.09
18.56
26.83
40.53
55.14
65.13
65.41
52.93
27.85
-6.11
-42.70
-75.20
-98.60
-111.14
-114.19
-110.93
-104.37
-96.40
-87.73
-78.67
-69.94
-62.67
-57.82
-55.44
-54.48
-53.27
-50.40
-45.39
-38.87
-32.28
-27.08
-24.16
-23.50
-24.28
-25.23
-25.20
-23.56
-20.39
-16.38
-12.48
-9.50
-7.85
-7.44
-7.83
-8.51
-9.14
-9.61
-10.06
-10.68
-11.59
-12.79
-14.11
-15.30
-16.10
-16.35
-16.00
-15.17
-14.09
-12.99
-12.03
-11.23
-10.50
-9.69
-8.69
-7.44
-6.00
-4.47
-2.95
-1.51
-0.23
0.86
1.69
2.19
2.33
2.14
1.77
1.41
1.24
1.21
1.01
0.12
-2.02
-5.62
-10.39
-15.57
-20.31
-24.14
-27.27
-30.55
-35.03
-41.38
-49.52
-58.59
-67.31
-74.64
-80.11
-83.95
-86.87
-89.76
-93.49
-98.81
-106.27
-115.83
-126.24
-134.55
-136.46
-127.74
-106.22
-73.44
-34.82
2.00
30.00
45.39
48.63
43.65
35.83
29.98
29.02
33.86
43.89
57.52
72.68
87.05
98.52
105.58
107.72
105.38
99.68
91.95
83.53
75.58
69.05
64.50
61.89
60.48
59.05
56.37
51.85
45.78
39.28
33.80
30.48
29.64
30.65
32.25
33.10
32.38
30.03
26.70
23.29
20.53
18.70
17.57
16.68
15.63
14.26
12.66
11.06
9.65
8.50
7.54
6.62
5.69
4.73
3.85
3.19
2.81
2.67
2.65
2.55
2.28
1.85
1.39
1.06
0.92
0.90
0.84
0.64
0.34
0.16
0.40
1.28
2.79
4.76
6.88
8.86
10.52
11.71
12.34
12.28
11.46
9.92
7.85
5.55
3.34
1.48
0.14
-0.57
-0.50
0.48
2.35
4.91
7.69
10.12
11.80
12.70
13.24
14.17
16.19
19.62
24.16
28.99
33.08
35.76
37.05
37.77
39.18
42.39
47.79
54.78
62.00
67.94
71.66
73.19
73.62
74.68
78.11
85.13
95.81
108.80
121.17
128.67
126.61
111.28
81.58
40.02
-7.46
-53.15
-90.01
-113.92
-124.72
-125.63
-121.41
-116.34
-112.81
-111.21
-110.66
-110.07
-108.79
-106.68
-103.75
-99.81
-94.40
-87.12
-77.99
-67.67
-57.37
-48.37
-41.55
-36.98
-33.94
-31.27
-27.92
-23.41
-17.97
-12.38
-7.63
-4.40
-2.81
-2.34
-2.10
-1.21
0.87
4.12
8.06
11.97
15.15
17.24
18.17
18.16
17.54
16.59
15.49
14.28
12.94
11.43
9.75
7.95
6.14
4.44
3.01
1.93
1.24
0.85
0.66
0.51
0.35
0.13
-0.09
-0.31
-0.52
-0.75
-1.01
-1.27
-1.41
-1.36
-1.14
-0.87
-0.74
-0.90
-1.34
-1.88
-2.29
-2.42
-2.27
-1.99
-1.75
-1.68
-1.75
-1.84
-1.83
-1.66
-1.39
-1.13
-1.02
-1.13
-1.45
-1.89
-2.29
-2.52
-2.53
-2.37
-2.19
-2.17
-2.39
-2.84
-3.38
-3.83
-4.07
-4.09
-3.99
-3.86
-3.73
-3.56
-3.24
-2.72
-2.05
-1.38
-0.89
-0.65
-0.63
-0.64
-0.49
-0.04
0.69
1.56
2.38
3.02
3.44
3.66
3.73
3.67
3.49
3.16
2.73
2.30
1.99
1.84
1.87
1.94
1.92
1.69
1.24
0.63
-0.02
-0.60
-1.08
-1.51
-1.93
-2.36
-2.78
-3.11
-3.28
-3.28
-3.11
-2.81
-2.41
-1.97
-1.57
-1.32
-1.28
-1.46
-1.78
-2.08
-2.21
-2.13
-1.89
-1.60
-1.37
-1.22
-1.07
-0.82
-0.46
-0.02
0.40
0.73
0.92
0.98
0.94
0.76
0.37
-0.25
-1.07
-1.95
-2.71
-3.23
-3.48
-3.55
-3.50
-3.40
-3.23
-2.98
-2.71
-2.55
-2.62
-2.96
-3.47
-4.00
-4.40
-4.69
-5.02
-5.65
-6.80
-8.57
-10.85
-13.40
-15.85
-17.82
-19.01
-19.27
-18.73
-17.74
-16.81
-16.43
-16.87
-18.12
-19.87
-21.72
-23.42
-25.00
-26.85
-29.44
-33.14
-38.00
-43.62
-49.44
-54.87
-59.67
-63.91
-68.02
-72.62
-78.47
-86.34
-96.65
-108.86
-120.84
-128.88
-128.58
-116.32
-90.88
-54.24
-11.19
32.16
70.19
99.19
117.81
126.63
127.30
121.83
112.17
100.22
87.85
76.71
68.02
62.15
58.54
55.84
52.33
46.68
38.45
28.37
17.98
8.89
2.16
-2.14
-4.75
-6.74
-8.94
-11.75
-15.10
-18.49
-21.07
-21.73
-19.34
-13.27
-3.83
7.60
18.97
28.36
34.71
38.13
39.56
40.05
40.14
39.71
38.34
35.92
32.87
30.02
28.09
27.30
27.25
27.20
26.49
24.82
22.33
19.47
16.74
14.51
12.95
11.97
11.38
10.87
10.19
9.20
7.91
6.55
5.39
4.68
4.46
4.55
4.63
4.43
3.85
3.05
2.29
1.79
1.59
1.55
1.47
1.19
0.68
0.04
-0.61
-1.16
-1.53
-1.69
-1.60
-1.29
-0.84
-0.47
-0.50
-1.22
-2.76
-5.03
-7.59
-9.82
-11.04
-10.75
-8.89
-5.82
-2.22
1.14
3.73
5.37
6.28
6.82
7.33
7.93
8.59
9.23
9.82
10.47
11.32
12.43
13.68
14.78
15.41
15.29
14.31
12.57
10.33
7.98
5.95
4.65
4.35
5.12
6.75
8.86
11.01
12.89
14.44
15.89
17.66
20.16
23.62
27.93
32.69
37.33
41.40
44.74
47.66
50.80
54.89
60.40
67.26
74.84
82.20
88.46
93.18
96.71
100.14
104.91
112.36
122.92
135.60
147.85
155.85
155.32
142.66
116.01
76.14
26.67
-26.53
-76.62
-117.52
-145.44
-159.62
-162.04
-156.31
-146.34
-135.15
-124.56
-115.32
-107.66
-101.58
-96.95
-93.36
-90.07
-86.27
-81.34
-75.25
-68.51
-61.95
-56.37
-52.18
-49.27
-47.08
-44.86
-42.02
-38.33
-34.03
-29.66
-25.87
-23.03
-21.17
-19.96
-18.87
-17.47
-15.60
-13.36
-11.08
-9.09
-7.60
-6.65
-6.12
-5.83
-5.58
-5.23
-4.65
-3.81
-2.76
-1.63
-0.60
0.18
0.62
0.78
0.79
0.86
1.10
1.52
1.99
2.32
2.33
1.95
1.19
0.17
-0.96
-2.10
-3.11
-3.92
-4.46
-4.70
-4.63
-4.35
-4.00
-3.74
-3.59
-3.42
-2.91
-1.73
0.29
2.96
5.76
8.03
9.24
9.24
8.29
6.94
5.66
4.71
4.06
3.55
3.08
2.71
2.60
2.79
3.18
3.49
3.48
3.03
2.24
1.37
0.66
0.21
-0.04
-0.24
-0.53
-0.98
-1.59
-2.28
-2.96
-3.54
-3.92
-4.05
-3.90
-3.52
-3.01
-2.54
-2.23
-2.12
-2.14
-2.14
-1.97
-1.58
-1.02
-0.44
-0.03
0.11
0.01
-0.21
-0.38
-0.38
-0.15
0.24
0.69
1.10
1.39
1.55
1.59
1.58
1.55
1.51
1.48
1.41
1.30
1.13
0.91
0.65
0.38
0.14
-0.02
-0.08
-0.06
-0.01
-0.00
-0.11
-0.35
-0.66
-0.96
-1.18
-1.31
-1.38
-1.45
-1.49
-1.41
-1.11
-0.55
0.16
0.81
1.19
1.18
0.84
0.39
0.02
-0.14
-0.09
0.03
0.12
0.12
0.05
-0.06
-0.15
-0.20
-0.19
-0.09
0.16
0.56
1.07
1.55
1.87
1.94
1.79
1.51
1.23
1.01
0.87
0.78
0.70
0.62
0.53
0.43
0.31
0.14
-0.09
-0.40
-0.76
-1.19
-1.65
-2.14
-2.64
-3.12
-3.55
-3.90
-4.16
-4.34
-4.43
-4.42
-4.31
-4.06
-3.66
-3.10
-2.43
-1.70
-1.03
-0.51
-0.20
-0.10
-0.15
-0.28
-0.40
-0.48
-0.49
-0.38
-0.12
0.33
0.92
1.54
2.01
2.21
2.14
1.96
1.87
2.05
2.50
3.08
3.53
3.65
3.36
2.75
2.04
1.43
1.09
1.06
1.28
1.64
2.07
2.53
2.99
3.41
3.68
3.67
3.29
2.57
1.62
0.65
-0.19
-0.83
-1.32
-1.69
-1.98
-2.13
-2.06
-1.76
-1.30
-0.85
-0.54
-0.46
-0.54
-0.67
-0.74
-0.72
-0.67
-0.66
-0.74
-0.86
-0.92
-0.84
-0.58
-0.22
0.12
0.32
0.30
0.11
-0.17
-0.44
-0.63
-0.76
-0.87
-1.01
-1.18
-1.28
-1.20
-0.87
-0.29
0.38
0.93
1.14
0.92
0.35
-0.38
-1.00
-1.31
-1.23
-0.82
-0.26
0.29
0.68
0.86
0.82
0.64
0.38
0.15
0.01
0.03
0.23
0.58
0.96
1.25
1.33
1.13
0.73
0.22
-0.22
-0.49
-0.54
-0.41
-0.21
-0.05
-0.02
-0.10
-0.25
-0.39
-0.42
-0.31
-0.09
0.20
0.43
0.52
0.44
0.23
-0.00
-0.15
-0.13
0.05
0.33
0.60
0.80
0.88
0.87
0.77
0.63
0.46
0.27
0.06
-0.15
-0.34
-0.45
-0.44
-0.27
0.05
0.43
0.71
0.77
0.53
0.09
-0.39
-0.71
-0.74
-0.53
-0.22
-0.02
-0.02
-0.23
-0.50
-0.72
-0.79
-0.73
-0.59
-0.47
-0.41
-0.40
-0.38
-0.32
-0.22
-0.12
-0.09
-0.16
-0.34
-0.53
-0.65
-0.65
-0.51
-0.28
-0.01
0.26
0.51
0.72
0.86
0.88
0.74
0.45
0.11
-0.17
-0.27
-0.18
0.03
0.24
0.37
0.42
0.47
0.58
0.77
0.99
1.17
1.25
1.21
1.11
0.97
0.81
0.62
0.40
0.18
0.03
-0.03
-0.01
0.00
-0.07
-0.27
-0.55
-0.78
-0.86
-0.75
-0.50
-0.27
-0.17
-0.25
-0.45
-0.64
-0.72
-0.67
-0.54
-0.44
-0.43
-0.51
-0.60
-0.65
-0.64
-0.65
-0.77
-1.02
-1.33
-1.59
-1.73
-1.81
-1.94
-2.27
-2.82
-3.50
-4.14
-4.61
-4.88
-5.04
-5.22
-5.50
-5.88
-6.26
-6.57
-6.79
-7.00
-7.33
-7.88
-8.65
-9.58
-10.55
-11.50
-12.44
-13.51
-14.86
-16.62
-18.74
-20.99
-23.06
-24.73
-26.04
-27.30
-29.00
-31.56
-35.07
-39.21
-43.35
-46.82
-49.22
-50.69
-51.85
-53.57
-56.57
-61.05
-66.59
-72.40
-77.60
-81.71
-84.74
-87.18
-89.75
-93.20
-98.18
-105.05
-113.45
-121.75
-126.90
-124.84
-111.86
-86.31
-49.70
-6.68
36.47
73.99
102.46
121.33
132.28
137.71
139.59
139.06
136.72
133.19
129.36
126.20
124.31
123.68
123.75
123.76
123.14
121.79
119.95
118.05
116.46
115.36
114.77
114.64
114.99
115.91
117.52
119.83
122.61
125.38
127.60
128.92
129.43
129.79
131.10
134.50
140.52
148.36
155.64
158.58
152.90
134.98
103.21
58.85
6.15
-48.46
-98.00
-136.71
-161.51
-172.47
-172.23
-164.71
-153.65
-141.71
-130.28
-119.88
-110.76
-103.19
-97.34
-92.98
-89.36
-85.42
-80.26
-73.68
-66.20
-58.84
-52.66
-48.21
-45.32
-43.26
-41.09
-38.11
-34.12
-29.56
-25.18
-21.76
-19.70
-18.87
-18.64
-18.24
-17.11
-15.11
-12.59
-10.12
-8.22
-7.12
-6.71
-6.66
-6.60
-6.31
-5.75
-5.02
-4.27
-3.63
-3.18
-2.97
-2.99
-3.26
-3.71
-4.26
-4.77
-5.09
-5.08
-4.70
-4.04
-3.26
-2.55
-2.07
-1.89
-1.97
-2.22
-2.55
-2.86
-3.11
-3.27
-3.30
-3.18
-2.92
-2.54
-2.11
-1.75
-1.52
-1.45
-1.46
-1.39
-1.05
-0.32
0.84
2.29
3.82
5.16
6.14
6.69
6.82
6.58
5.98
5.01
3.67
2.00
0.14
-1.73
-3.39
-4.68
-5.51
-5.87
-5.84
-5.53
-5.09
-4.65
-4.29
-4.02
-3.82
-3.66
-3.56
-3.53
-3.59
-3.72
-3.87
-3.98
-4.03
-3.99
-3.87
-3.65
-3.29
-2.77
-2.14
-1.50
-0.96
-0.63
-0.50
-0.47
-0.40
-0.15
0.34
1.09
2.06
3.20
4.48
5.86
7.26
8.57
9.59
10.10
9.92
8.97
7.31
5.18
2.98
1.17
0.17
0.24
1.37
3.20
5.13
6.52
6.93
6.34
5.15
3.96
3.32
3.49
4.45
6.02
8.04
10.44
13.15
15.96
18.33
19.49
18.65
15.27
9.34
1.42
-7.46
-16.04
-23.10
-27.82
-29.91
-29.77
-28.34
-26.80
-26.17
-26.95
-28.96
-31.43
-33.41
-34.18
-33.48
-31.63
-29.25
-26.95
-25.17
-24.09
-23.62
-23.25
-21.93
-18.12
-10.32
2.12
18.24
35.38
49.82
58.23
58.97
52.72
42.04
30.24
20.08
12.97
8.99
7.40
7.34
8.18
9.65
11.59
13.70
15.50
16.41
15.91
13.95
11.00
7.95
5.72
4.82
5.03
5.48
5.05
2.97
-0.81
-5.55
-10.12
-13.51
-15.26
-15.55
-15.04
-14.48
-14.39
-14.95
-16.07
-17.56
-19.35
-21.56
-24.45
-28.27
-33.14
-38.85
-44.77
-49.97
-53.52
-54.93
-54.47
-53.16
-52.43
-53.40
-56.38
-60.71
-65.22
-68.85
-71.13
-72.14
-72.13
-71.19
-69.38
-67.20
-65.71
-66.02
-68.15
-70.25
-68.74
-59.88
-41.74
-15.52
14.79
44.08
68.39
86.14
97.97
105.43
109.63
110.74
108.47
102.94
95.18
86.87
79.61
74.21
70.48
67.55
64.35
60.14
54.83
48.89
43.11
38.20
34.53
31.98
30.03
28.09
25.73
22.91
19.95
17.27
15.25
13.94
13.19
12.66
12.06
11.25
10.28
9.29
8.40
7.70
7.19
6.82
6.48
6.07
5.50
4.74
3.82
2.88
2.04
1.44
1.08
0.85
0.58
0.15
-0.44
-1.08
-1.61
-1.92
-2.02
-1.97
-1.85
-1.67
-1.37
-0.94
-0.40
0.10
0.37
0.30
-0.08
-0.55
-0.86
-0.84
-0.51
-0.09
0.18
0.13
-0.18
-0.52
-0.64
-0.37
0.25
1.00
1.60
1.88
1.77
1.38
0.87
0.35
-0.18
-0.76
-1.41
-2.11
-2.72
-3.09
-3.14
-2.87
-2.44
-2.00
-1.69
-1.48
-1.32
-1.10
-0.79
-0.48
-0.24
-0.15
-0.17
-0.20
-0.13
0.09
0.44
0.86
1.31
1.76
2.20
2.61
2.95
3.15
3.17
3.04
2.82
2.56
2.30
2.07
1.86
1.71
1.67
1.73
1.81
1.82
1.66
1.34
0.92
0.54
0.27
0.13
0.07
-0.01
-0.16
-0.39
-0.70
-1.06
-1.48
-1.94
-2.40
-2.83
-3.16
-3.35
-3.37
-3.20
-2.89
-2.48
-2.06
-1.72
-1.46
-1.26
-1.03
-0.70
-0.28
0.14
0.47
0.62
0.64
0.64
0.75
1.10
1.68
2.42
3.14
3.69
3.93
3.83
3.46
2.96
2.51
2.14
1.74
0.95
-0.66
-3.45
-7.50
-12.55
-18.03
-23.33
-27.95
-31.66
-34.51
-36.66
-38.31
-39.53
-40.34
-40.70
-40.62
-40.17
-39.41
-38.39
-37.13
-35.55
-33.58
-31.18
-28.30
-24.87
-20.72
-15.60
-9.24
-1.53
7.28
16.57
25.46
33.12
39.05
43.23
46.05
48.04
49.60
50.83
51.62
51.79
51.29
50.25
48.94
47.60
46.41
45.40
44.53
43.75
42.94
41.94
40.50
38.39
35.52
32.04
28.34
24.92
22.15
20.12
18.63
17.41
16.39
15.83
16.24
18.18
21.87
26.94
32.50
37.41
40.77
42.29
42.47
42.40
43.30
45.96
50.37
55.73
60.75
64.34
66.11
66.60
67.12
69.28
74.43
83.01
94.14
105.32
112.60
111.24
96.94
67.51
24.19
-27.99
-81.27
-127.47
-160.52
-178.20
-182.26
-176.90
-166.65
-154.72
-142.46
-130.05
-117.66
-106.12
-96.77
-90.57
-87.33
-85.45
-82.66
-77.19
-68.78
-58.80
-49.65
-43.58
-41.70
-43.66
-48.08
-53.44
-58.58
-62.60
-64.33
-62.01
-53.73
-38.49
-17.27
6.74
29.07
45.79
55.05
57.55
55.69
52.12
48.48
45.09
41.56
37.66
33.76
30.64
28.91
28.46
28.53
28.15
26.56
23.67
20.06
16.62
14.19
13.22
13.58
14.69
15.76
16.10
15.40
13.78
11.74
9.95
9.00
9.25
10.67
12.95
15.54
17.85
19.41
20.02
19.89
19.52
19.60
20.68
22.92
25.96
29.06
31.39
32.47
32.29
31.41
30.75
31.20
33.42
37.65
43.67
50.60
56.71
59.57
56.73
46.77
30.27
10.02
-9.80
-25.09
-33.43
-34.89
-31.60
-26.68
-22.79
-21.35
-22.45
-25.37
-29.26
-33.51
-37.82
-42.06
-45.99
-49.25
-51.36
-51.79
-50.30
-47.14
-43.06
-39.10
-36.19
-34.78
-34.68
-35.19
-35.47
-34.92
-33.34
-30.94
-28.14
-25.28
-22.58
-20.09
-17.77
-15.59
-13.51
-11.36
-8.83
-5.61
-1.54
3.06
7.39
10.31
10.83
8.51
3.67
-2.72
-9.55
-16.06
-22.10
-28.13
-34.69
-42.01
-49.67
-56.78
-62.26
-65.51
-66.54
-65.98
-64.74
-63.58
-62.95
-63.10
-64.24
-66.36
-68.65
-69.08
-64.52
-51.95
-30.17
-1.03
30.72
59.10
79.36
89.80
91.98
89.27
84.76
79.93
74.60
68.01
60.14
52.14
45.77
42.31
41.73
42.65
43.16
41.79
38.22
33.40
28.87
25.97
25.18
25.97
27.13
27.34
25.71
21.99
16.42
9.50
1.81
-6.02
-13.28
-19.17
-23.09
-24.84
-24.77
-23.56
-21.91
-20.21
-18.48
-16.60
-14.52
-12.52
-10.99
-10.30
-10.51
-11.40
-12.61
-13.90
-15.16
-16.43
-17.77
-19.11
-20.36
-21.48
-22.55
-23.85
-25.82
-28.87
-32.99
-37.32
-40.06
-38.92
-32.17
-19.63
-3.19
13.77
27.64
36.13
39.03
37.92
35.08
32.24
30.00
27.98
25.66
22.89
20.11
17.94
16.72
16.25
15.92
15.11
13.42
10.91
7.96
5.07
2.60
0.71
-0.71
-1.89
-3.07
-4.40
-5.91
-7.55
-9.32
-11.24
-13.37
-15.71
-18.05
-19.90
-20.67
-19.77
-17.00
-12.63
-7.44
-2.44
1.40
3.46
3.64
2.37
0.53
-0.79
-0.58
1.81
6.45
12.83
19.97
26.77
32.21
35.62
36.76
35.82
33.33
30.16
27.27
25.53
25.30
26.26
27.40
27.39
25.14
20.38
13.91
7.62
4.08
5.72
14.03
28.83
48.04
68.16
85.36
96.75
101.46
100.98
98.55
97.80
100.95
107.42
113.37
112.80
99.78
71.22
28.69
-21.62
-70.99
-111.43
-138.53
-152.44
-156.72
-155.94
-153.54
-151.03
-148.51
-145.49
-141.09
-133.69
-120.69
-99.13
-67.34
-26.49
18.81
61.83
96.18
118.20
127.96
128.65
124.70
119.99
116.94
116.52
118.99
124.28
131.74
139.56
144.45
142.30
129.77
106.26
74.79
41.22
11.64
-10.44
-25.60
-37.67
-50.96
-67.50
-85.71
-101.56
-111.18
-113.18
-109.29
-103.00
-97.40
-93.57
-90.57
-86.65
-80.68
-72.96
-64.98
-58.40
-54.06
-51.64
-49.98
-47.75
-44.16
-39.25
-33.70
-28.36
-23.90
-20.53
-18.01
-15.84
-13.42
-10.24
-6.11
-1.26
3.58
7.45
9.51
9.41
7.59
5.04
2.97
2.31
3.40
6.03
9.59
13.36
16.70
19.04
19.97
19.27
16.98
13.48
9.44
5.63
2.71
1.11
0.92
1.98
3.96
6.46
9.06
11.46
13.51
15.22
16.74
18.25
19.82
21.41
22.87
24.00
24.57
24.32
22.98
20.32
16.34
11.31
5.83
0.61
-3.74
-6.90
-8.92
-10.07
-10.73
-11.21
-11.79
-12.67
-14.05
-16.03
-18.53
-21.22
-23.55
-24.94
-25.03
-23.85
-21.82
-19.63
-17.83
-16.70
-16.09
-15.61
-14.84
-13.58
-11.96
-10.28
-8.84
-7.71
-6.79
-5.87
-4.84
-3.78
-2.88
-2.31
-2.08
-2.00
-1.82
-1.36
-0.63
0.18
0.87
1.31
1.52
1.66
1.85
2.12
2.42
2.62
2.63
2.44
2.07
1.58
1.05
0.53
0.06
-0.38
-0.84
-1.38
-2.03
-2.75
-3.42
-3.92
-4.20
-4.25
-4.11
-3.82
-3.34
-2.63
-1.66
-0.50
0.75
1.93
2.93
3.71
4.30
4.77
5.16
5.46
5.56
5.33
4.64
3.51
2.12
0.82
-0.02
-0.16
0.34
1.19
2.04
2.63
2.93
3.07
3.17
3.27
3.31
3.25
3.16
3.21
3.51
4.00
4.44
4.47
3.85
2.57
0.91
-0.74
-2.03
-2.80
-3.10
-3.05
-2.74
-2.12
-1.08
0.48
2.48
4.64
6.58
7.92
8.46
8.18
7.32
6.19
5.14
4.39
4.06
4.14
4.58
5.33
6.30
7.37
8.40
9.30
10.15
11.17
12.57
14.43
16.47
18.16
18.91
18.39
16.64
13.98
10.80
7.23
3.17
-1.56
-6.88
-12.39
-17.43
-21.40
-24.02
-25.43
-25.98
-26.03
-25.81
-25.40
-24.81
-24.05
-23.17
-22.21
-21.15
-19.95
-18.57
-17.08
-15.69
-14.70
-14.34
-14.70
-15.59
-16.65
-17.50
-17.97
-18.27
-18.93
-20.62
-23.74
-28.19
-33.29
-38.04
-41.53
-43.49
-44.41
-45.39
-47.69
-52.04
-58.36
-65.72
-72.86
-78.66
-82.70
-85.33
-87.43
-90.02
-93.92
-99.59
-107.05
-115.54
-123.16
-126.65
-121.85
-105.13
-75.22
-34.44
11.44
55.07
90.28
114.18
127.68
134.08
136.84
137.82
137.02
133.51
126.79
117.47
106.88
96.17
85.72
75.18
64.09
52.63
41.71
32.58
26.15
22.53
21.05
20.61
20.11
18.79
16.33
12.76
8.43
3.89
-0.27
-3.50
-5.56
-6.62
-7.13
-7.69
-8.65
-9.95
-11.02
-11.02
-9.15
-5.05
1.04
8.33
15.76
22.38
27.60
31.23
33.37
34.26
34.13
33.21
31.74
30.00
28.28
26.79
25.55
24.46
23.37
22.15
20.81
19.39
17.95
16.43
14.78
12.94
10.98
9.10
7.50
6.30
5.47
4.83
4.19
3.41
2.53
1.64
0.81
-0.00
-0.98
-2.34
-4.15
-6.28
-8.41
-10.15
-11.22
-11.59
-11.44
-11.06
-10.68
-10.37
-10.04
-9.53
-8.74
-7.66
-6.39
-5.09
-3.86
-2.74
-1.73
-0.76
0.21
1.21
2.22
3.16
3.92
4.42
4.63
4.60
4.48
4.44
4.62
5.05
5.70
6.43
7.12
7.66
8.02
8.28
8.60
9.21
10.27
11.75
13.36
14.70
15.38
15.30
14.79
14.56
15.40
17.76
21.49
25.81
29.59
31.96
32.70
32.45
32.46
34.04
37.91
43.86
50.81
57.27
62.01
64.59
65.52
66.03
67.79
72.43
81.01
93.44
107.75
119.86
124.08
114.82
88.91
47.74
-2.38
-51.95
-91.54
-115.09
-121.54
-114.23
-98.57
-79.64
-60.69
-43.27
-28.19
-16.24
-8.27
-4.63
-4.87
-7.85
-12.35
-17.68
-23.68
-30.41
-37.59
-44.61
-50.69
-55.26
-58.02
-58.85
-57.56
-53.93
-47.94
-40.20
-32.05
-25.08
-20.57
-18.79
-18.89
-19.27
-18.36
-15.28
-10.12
-3.90
1.97
6.35
8.78
9.59
9.73
10.25
11.88
14.84
18.84
23.15
26.70
28.14
26.12
19.78
9.28
-3.97
-17.58
-29.02
-36.58
-39.92
-40.01
-38.37
-36.28
-34.26
-32.22
-29.92
-27.45
-25.28
-24.02
-23.93
-24.74
-25.79
-26.41
-26.26
-25.50
-24.67
-24.37
-25.02
-26.66
-28.94
-31.20
-32.76
-33.11
-32.15
-30.31
-28.46
-27.53
-28.20
-30.53
-33.94
-37.47
-40.25
-41.99
-43.09
-44.49
-47.22
-51.93
-58.57
-66.45
-74.40
-81.31
-86.50
-90.02
-92.84
-96.57
-103.01
-113.24
-126.78
-141.03
-151.52
-152.84
-140.25
-111.26
-66.79
-11.32
48.06
103.38
147.86
177.55
191.99
193.81
187.33
176.97
166.01
156.18
148.03
141.71
137.53
136.00
137.31
140.83
144.99
147.76
147.48
143.61
136.97
129.55
123.61
121.07
122.87
128.72
137.11
145.26
149.40
145.29
129.24
99.55
57.58
7.97
-42.37
-86.36
-118.88
-138.11
-145.40
-144.05
-137.64
-128.82
-119.07
-109.11
-99.52
-91.01
-84.14
-78.99
-74.88
-70.69
-65.36
-58.51
-50.58
-42.70
-36.15
-31.82
-29.83
-29.55
-29.87
-29.66
-28.20
-25.38
-21.74
-18.19
-15.62
-14.55
-14.90
-16.07
-17.24
-17.72
-17.24
-16.06
-14.84
-14.28
-14.86
-16.63
-19.20
-21.93
-24.22
-25.73
-26.56
-27.15
-28.10
-29.95
-32.96
-37.04
-41.87
-46.94
-51.65
-55.24
-56.92
-56.07
-52.66
-47.47
-41.86
-37.18
-33.90
-31.33
-27.85
-21.96
-13.15
-2.39
8.33
16.95
22.27
24.36
24.17
23.07
22.44
23.62
27.95
36.65
50.39
68.81
90.40
112.84
133.72
151.25
164.51
173.37
178.13
179.28
177.38
173.05
166.98
159.83
152.20
144.57
137.31
130.50
123.64
115.37
103.58
86.17
62.04
31.98
-1.20
-33.46
-60.97
-81.38
-94.38
-101.28
-104.01
-104.20
-102.72
-99.90
-95.92
-91.18
-86.26
-81.69
-77.66
-74.01
-70.44
-66.82
-63.37
-60.58
-58.89
-58.47
-59.01
-59.80
-59.95
-58.73
-55.76
-51.13
-45.34
-39.19
-33.51
-28.99
-25.97
-24.40
-23.89
-23.89
-23.90
-23.63
-23.02
-22.18
-21.23
-20.21
-19.03
-17.53
-15.58
-13.13
-10.28
-7.09
-3.54
0.58
5.54
11.45
18.05
24.62
30.21
33.91
35.26
34.34
31.66
27.96
23.98
20.40
17.79
16.58
16.91
18.48
20.56
22.32
23.25
23.48
23.79
25.06
27.72
31.31
34.60
36.18
35.19
31.82
27.18
22.73
19.55
17.76
16.52
14.54
10.76
4.89
-2.49
-10.27
-17.28
-22.83
-26.76
-29.33
-30.86
-31.52
-31.27
-29.96
-27.58
-24.37
-20.87
-17.75
-15.55
-14.53
-14.55
-15.10
-15.51
-15.20
-13.99
-12.15
-10.27
-8.95
-8.50
-8.75
-9.17
-9.13
-8.23
-6.46
-4.15
-1.76
0.36
2.06
3.41
4.48
5.26
5.61
5.40
4.66
3.59
2.52
1.66
1.06
0.56
-0.04
-0.83
-1.69
-2.32
-2.49
-2.12
-1.38
-0.60
-0.10
0.00
-0.24
-0.64
-1.00
-1.27
-1.48
-1.75
-2.15
-2.66
-3.16
-3.50
-3.58
-3.36
-2.90
-2.33
-1.77
-1.33
-1.10
-1.05
-1.16
-1.35
-1.55
-1.75
-1.92
-2.02
-2.03
-1.88
-1.49
-0.87
-0.07
0.80
1.57
2.16
2.51
2.64
2.54
2.19
1.55
0.65
-0.38
-1.24
-1.64
-1.37
-0.47
0.78
1.96
2.68
2.74
2.21
1.34
0.47
-0.12
-0.29
-0.06
0.37
0.78
0.97
0.87
0.57
0.24
0.04
0.04
0.18
0.39
0.59
0.69
0.59
0.11
-0.93
-2.54
-4.52
-6.40
-7.67
-8.02
-7.54
-6.70
-6.09
-6.10
-6.66
-7.30
-7.35
-6.33
-4.17
-1.28
1.63
3.81
4.76
4.38
2.91
0.76
-1.63
-3.97
-6.12
-8.00
-9.53
-10.62
-11.23
-11.47
-11.54
-11.67
-11.94
-12.21
-12.16
-11.38
-9.66
-7.01
-3.73
-0.26
2.97
5.56
7.23
7.80
7.13
5.29
2.53
-0.72
-3.95
-6.82
-9.17
-11.12
-12.84
-14.46
-15.90
-16.93
-17.35
-17.10
-16.42
-15.77
-15.65
-16.31
-17.59
-18.94
-19.65
-19.21
-17.63
-15.59
-14.30
-15.07
-18.75
-25.32
-33.86
-42.95
-51.28
-58.15
-63.63
-68.22
-72.40
-76.40
-80.34
-84.51
-89.36
-94.80
-99.45
-100.42
-94.18
-78.34
-53.25
-22.40
8.80
35.30
54.27
65.75
71.61
73.91
73.72
71.03
65.64
58.10
49.94
43.01
38.63
36.99
37.28
38.31
39.14
39.46
39.59
40.19
41.78
44.45
47.65
50.45
51.79
50.96
47.89
43.25
38.15
33.82
31.09
30.22
30.84
32.15
33.29
33.66
33.01
31.48
29.40
27.17
25.01
23.05
21.29
19.72
18.35
17.17
16.15
15.18
14.16
13.06
11.91
10.82
9.93
9.37
9.20
9.39
9.80
10.21
10.37
10.06
9.24
8.03
6.72
5.66
5.16
5.37
6.21
7.42
8.67
9.65
10.22
10.46
10.61
11.02
11.94
13.42
15.24
17.00
18.27
18.76
18.50
17.81
17.30
17.58
19.09
21.85
25.48
29.24
32.40
34.51
35.70
36.62
38.19
41.14
45.62
51.08
56.52
60.87
63.56
64.72
65.10
65.78
67.75
71.62
77.40
84.41
91.09
94.95
92.91
82.20
61.58
32.38
-1.39
-34.07
-60.18
-76.33
-82.08
-79.61
-72.30
-63.24
-54.32
-46.26
-39.21
-33.28
-28.73
-25.74
-23.96
-22.52
-20.32
-16.69
-11.90
-7.37
-5.35
-8.03
-16.48
-29.96
-45.79
-60.28
-70.03
-73.27
-70.43
-63.80
-56.44
-50.91
-48.44
-48.83
-51.01
-53.73
-56.16
-58.00
-59.36
-60.46
-61.33
-61.80
-61.56
-60.39
-58.37
-55.92
-53.68
-52.26
-51.95
-52.72
-54.27
-56.19
-57.93
-58.66
-57.27
-52.64
-44.32
-33.11
-21.25
-11.83
-7.65
-10.06
-18.46
-30.68
-44.03
-56.34
-66.53
-74.45
-80.41
-84.72
-87.69
-89.93
-92.34
-95.54
-98.95
-100.28
-95.97
-82.53
-58.29
-24.50
14.83
54.28
88.78
115.08
132.08
140.38
141.43
136.95
128.75
118.79
109.14
101.61
96.99
94.49
91.78
85.81
74.08
56.03
33.69
11.26
-6.57
-16.51
-18.01
-13.34
-6.27
-0.21
3.18
4.25
4.53
5.57
8.04
11.66
15.76
19.88
24.10
28.74
34.10
40.27
47.23
55.18
64.59
75.84
88.83
102.79
116.42
128.42
137.98
144.87
149.07
150.32
148.03
141.47
130.33
115.01
96.54
76.28
55.56
35.63
17.60
2.33
-10.04
-20.37
-30.27
-41.36
-54.16
-67.57
-79.20
-86.55
-88.37
-85.13
-78.55
-70.41
-61.62
-52.23
-42.23
-32.39
-24.45
-20.60
-22.21
-29.04
-39.13
-49.59
-57.80
-62.33
-63.24
-61.75
-59.57
-58.26
-58.74
-61.16
-64.83
-68.44
-70.46
-69.74
-65.98
-60.03
-53.59
-48.57
-46.42
-47.71
-52.19
-58.83
-65.82
-70.19
-67.88
-54.69
-28.10
10.68
55.89
98.50
129.39
142.97
139.36
123.91
104.33
87.19
75.60
69.23
66.05
64.57
64.97
68.37
75.01
82.65
86.62
81.61
64.43
36.02
1.74
-30.79
-54.84
-67.27
-69.36
-65.43
-60.26
-56.71
-54.92
-53.21
-49.88
-44.66
-38.94
-34.87
-33.99
-36.22
-39.94
-42.74
-42.68
-39.25
-33.46
-27.18
-22.16
-19.22
-17.98
-17.30
-15.94
-13.30
-9.66
-5.94
-3.19
-2.12
-2.80
-4.72
-7.03
-8.86
-9.59
-8.98
-7.21
-4.70
-1.98
0.46
2.28
3.38
3.84
3.91
3.84
3.90
4.21
4.79
5.54
6.36
7.11
7.68
7.88
7.47
6.11
3.53
-0.32
-5.17
-10.45
-15.42
-19.44
-22.09
-23.35
-23.49
-22.97
-22.31
-21.93
-22.11
-22.90
-24.10
-25.26
-25.89
-25.58
-24.25
-22.22
-20.17
-18.95
-19.28
-21.44
-25.20
-29.74
-33.96
-36.84
-37.87
-37.35
-36.41
-36.59
-39.19
-44.55
-51.81
-59.23
-64.92
-67.71
-67.57
-65.44
-62.79
-61.14
-61.68
-65.08
-71.12
-78.14
-82.67
-79.74
-64.35
-33.72
10.81
63.27
114.65
156.00
181.63
190.74
187.03
176.42
164.41
154.42
147.63
143.97
143.05
144.19
145.61
143.83
134.30
113.35
80.66
40.43
0.29
-31.60
-50.08
-54.85
-49.99
-41.44
-34.03
-29.82
-28.25
-27.63
-26.72
-25.43
-24.44
-24.36
-25.17
-26.17
-26.41
-25.31
-22.91
-19.92
-17.30
-15.85
-15.84
-16.95
-18.45
-19.56
-19.86
-19.45
-18.84
-18.57
-18.89
-19.60
-20.18
-20.08
-18.96
-16.87
-14.15
-11.26
-8.60
-6.36
-4.53
-2.88
-1.05
1.36
4.70
9.15
14.55
20.48
26.27
31.22
34.77
36.63
36.92
35.99
34.40
32.62
30.93
29.35
27.69
25.73
23.38
20.68
17.66
14.20
10.06
5.02
-0.71
-6.38
-10.88
-13.20
-12.99
-10.86
-8.09
-6.08
-5.64
-6.71
-8.53
-10.11
-10.81
-10.55
-9.72
-8.98
-8.99
-10.37
-13.65
-19.08
-26.52
-35.27
-44.20
-52.16
-58.45
-63.06
-66.52
-69.40
-71.81
-73.25
-73.06
-71.01
-67.68
-64.31
-62.10
-61.57
-62.43
-63.82
-64.77
-64.21
-60.82
-53.03
-39.54
-20.24
3.01
26.51
45.96
58.23
62.67
61.22
57.07
52.88
49.66
46.70
42.52
36.11
27.78
19.39
13.75
13.66
20.87
35.23
54.53
75.13
93.40
107.00
115.59
120.47
123.42
125.62
127.25
128.11
128.34
128.44
128.49
127.22
121.82
109.12
87.59
58.83
27.46
-0.52
-20.17
-29.43
-29.26
-22.43
-12.02
-0.56
9.70
16.24
16.22
7.41
-10.40
-34.63
-60.41
-82.37
-96.58
-101.98
-100.27
-94.67
-88.27
-82.83
-78.55
-74.67
-70.36
-65.32
-59.91
-54.83
-50.67
-47.62
-45.43
-43.60
-41.70
-39.65
-37.74
-36.49
-36.33
-37.29
-38.93
-40.49
-41.22
-40.69
-39.01
-36.80
-34.93
-34.18
-34.95
-37.10
-40.01
-42.88
-44.97
-45.92
-45.87
-45.37
-45.18
-45.98
-48.19
-51.82
-56.43
-60.97
-63.66
-62.19
-54.40
-39.27
-17.74
7.22
31.47
51.18
64.19
70.50
71.79
70.16
67.22
63.61
59.43
54.75
49.97
45.64
42.06
39.03
36.04
32.62
28.72
24.68
21.09
18.34
16.48
15.19
13.89
11.90
8.68
4.12
-1.13
-5.64
-7.55
-5.38
1.18
10.90
21.35
29.92
34.93
36.26
35.18
33.50
32.60
32.89
33.88
34.77
34.98
34.54
33.88
33.54
33.86
34.81
36.11
37.31
38.00
37.94
37.04
35.42
33.39
31.37
29.73
28.61
27.80
26.73
24.79
21.58
17.39
13.15
10.27
10.00
12.81
18.16
24.60
30.44
34.43
36.29
36.73
37.07
38.67
42.51
49.11
58.41
69.44
79.91
86.11
83.70
69.42
42.91
7.69
-29.68
-61.99
-84.14
-94.91
-96.65
-93.48
-88.87
-84.32
-79.62
-74.04
-67.69
-61.74
-57.81
-56.72
-57.86
-59.38
-59.03
-55.32
-48.16
-38.86
-29.49
-21.98
-17.36
-15.57
-15.65
-16.26
-16.36
-15.53
-14.01
-12.38
-11.17
-10.58
-10.32
-9.86
-8.69
-6.57
-3.63
-0.22
3.23
6.44
9.24
11.43
12.77
13.02
12.18
10.58
8.87
7.70
7.39
7.65
7.75
6.92
4.83
1.79
-1.42
-3.99
-5.51
-6.15
-6.47
-7.08
-8.31
-10.13
-12.22
-14.26
-16.04
-17.60
-19.12
-20.75
-22.54
-24.29
-25.66
-26.22
-25.60
-23.60
-20.25
-15.82
-10.76
-5.52
-0.52
3.89
7.44
9.86
10.86
10.22
7.93
4.27
-0.14
-4.49
-7.97
-10.08
-10.80
-10.57
-10.15
-10.27
-11.33
-13.22
-15.38
-17.15
-18.13
-18.43
-18.73
-19.82
-22.17
-25.54
-29.15
-31.89
-32.63
-30.32
-24.02
-13.09
2.36
21.10
40.80
58.57
72.01
80.07
83.31
83.35
81.89
79.92
77.59
74.60
70.86
66.77
63.15
60.79
60.16
61.22
63.25
64.67
63.24
56.83
44.28
26.30
5.53
-14.33
-29.99
-39.84
-44.37
-45.46
-45.19
-44.74
-44.16
-42.87
-40.46
-37.23
-34.04
-31.78
-30.84
-30.85
-30.97
-30.31
-28.36
-25.30
-21.79
-18.71
-16.69
-15.87
-15.86
-15.98
-15.58
-14.33
-12.33
-10.03
-8.00
-6.68
-6.17
-6.28
-6.56
-6.56
-6.01
-4.93
-3.63
-2.51
-1.84
-1.69
-1.90
-2.17
-2.26
-2.05
-1.56
-0.91
-0.23
0.35
0.74
0.90
0.82
0.56
0.22
-0.09
-0.32
-0.46
-0.50
-0.44
-0.21
0.20
0.74
1.29
1.67
1.77
1.59
1.22
0.78
0.37
0.01
-0.32
-0.63
-0.89
-1.07
-1.11
-1.01
-0.81
-0.55
-0.29
-0.07
0.06
0.07
-0.05
-0.24
-0.40
-0.44
-0.31
-0.07
0.15
0.25
0.17
-0.01
-0.20
-0.32
-0.35
-0.34
-0.30
-0.24
-0.06
0.27
0.70
1.08
1.22
1.03
0.58
0.07
-0.26
-0.30
-0.11
0.14
0.24
0.11
-0.17
-0.44
-0.57
-0.51
-0.32
-0.13
0.00
0.04
0.02
-0.02
-0.06
-0.11
-0.16
-0.21
-0.24
-0.22
-0.18
-0.16
-0.20
-0.30
-0.42
-0.53
-0.60
-0.63
-0.63
-0.62
-0.55
-0.39
-0.10
0.27
0.64
0.90
0.95
0.79
0.51
0.21
-0.00
-0.08
-0.07
-0.02
0.04
0.08
0.15
0.26
0.39
0.50
0.50
0.39
0.16
-0.10
-0.31
-0.42
-0.40
-0.27
-0.09
0.07
0.12
0.02
-0.23
-0.55
-0.82
-0.92
-0.77
-0.37
0.17
0.75
1.19
1.40
1.32
0.98
0.51
0.06
-0.23
-0.29
-0.16
0.04
0.17
0.17
0.07
-0.02
-0.05
0.03
0.16
0.29
0.34
0.29
0.15
-0.04
-0.26
-0.46
-0.65
-0.83
-1.03
-1.24
-1.43
-1.52
-1.43
-1.16
-0.78
-0.41
-0.18
-0.15
-0.31
-0.59
-0.94
-1.37
-1.90
-2.53
-3.23
-3.94
-4.63
-5.36
-6.23
-7.33
-8.61
-9.90
-10.98
-11.73
-12.24
-12.82
-13.85
-15.58
-17.95
-20.58
-22.92
-24.54
-25.34
-25.63
-26.05
-27.27
-29.74
-33.42
-37.77
-41.93
-45.06
-46.71
-47.08
-47.00
-47.55
-49.50
-52.85
-56.59
-59.05
-58.43
-53.64
-44.71
-32.90
-20.32
-9.26
-1.57
1.72
0.43
-4.80
-12.93
-22.71
-32.99
-42.97
-52.45
-61.85
-71.93
-82.97
-93.85
-101.51
-101.39
-89.00
-62.07
-22.23
24.81
70.99
108.71
133.44
144.78
145.66
140.33
132.29
123.36
114.00
104.32
94.92
86.88
81.19
78.06
76.72
75.81
74.21
71.69
68.90
66.97
66.76
68.32
70.96
73.60
75.51
76.71
78.01
80.62
85.43
92.62
101.36
110.24
117.76
122.99
125.97
127.76
130.17
134.96
142.90
152.90
161.80
164.83
157.01
134.82
97.73
48.88
-5.60
-58.21
-102.28
-133.72
-151.77
-158.45
-157.29
-151.78
-144.47
-136.71
-129.14
-122.23
-116.58
-112.73
-110.77
-109.97
-108.96
-106.21
-100.68
-92.18
-81.38
-69.53
-57.92
-47.50
-38.66
-31.32
-25.16
-19.87
-15.38
-11.82
-9.45
-8.39
-8.43
-9.05
-9.56
-9.42
-8.39
-6.69
-4.80
-3.21
-2.24
-1.87
-1.85
-1.83
-1.55
-0.92
-0.08
0.77
1.39
1.65
1.57
1.25
0.87
0.57
0.40
0.39
0.46
0.58
0.70
0.82
0.97
1.17
1.46
1.85
2.29
2.71
3.04
3.19
3.17
3.02
2.84
2.70
2.63
2.56
2.44
2.25
2.04
1.91
1.94
2.11
2.28
2.25
1.90
1.26
0.52
-0.05
-0.26
-0.09
0.29
0.63
0.68
0.34
-0.36
-1.26
-2.15
-2.88
-3.35
-3.57
-3.61
-3.55
-3.44
-3.28
-3.05
-2.72
-2.32
-1.93
-1.65
-1.53
-1.57
-1.69
-1.81
-1.89
-1.93
-1.98
-2.09
-2.26
-2.44
-2.55
-2.57
-2.49
-2.37
-2.26
-2.20
-2.19
-2.18
-2.10
-1.94
-1.69
-1.41
-1.18
-1.01
-0.89
-0.72
-0.45
-0.08
0.31
0.61
0.78
0.86
0.94
1.12
1.36
1.53
1.47
1.13
0.59
0.04
-0.33
-0.47
-0.44
-0.40
-0.45
-0.56
-0.61
-0.50
-0.20
0.19
0.51
0.66
0.61
0.45
0.26
0.11
-0.01
-0.11
-0.20
-0.25
-0.27
-0.28
-0.33
-0.46
-0.67
-0.91
-1.09
-1.16
-1.08
-0.90
-0.69
-0.53
-0.47
-0.57
-0.81
-1.12
-1.41
-1.55
-1.50
-1.31
-1.08
-0.97
-1.05
-1.31
-1.69
-2.06
-2.31
-2.38
-2.25
-1.98
-1.67
-1.42
-1.32
-1.36
-1.49
-1.60
-1.62
-1.53
-1.34
-1.09
-0.79
-0.42
0.02
0.47
0.80
0.90
0.73
0.41
0.09
-0.05
0.02
0.24
0.48
0.65
0.79
0.97
1.28
1.70
2.13
2.41
2.48
2.38
2.25
2.27
2.50
2.90
3.32
3.58
3.61
3.41
3.08
2.75
2.55
2.54
2.70
2.93
3.07
2.93
2.43
1.57
0.48
-0.62
-1.56
-2.22
-2.61
-2.84
-3.00
-3.18
-3.37
-3.50
-3.53
-3.48
-3.45
-3.60
-4.04
-4.74
-5.54
-6.16
-6.39
-6.19
-5.69
-5.10
-4.59
-4.20
-3.84
-3.41
-2.87
-2.29
-1.78
-1.42
-1.17
-0.97
-0.73
-0.46
-0.24
-0.21
-0.46
-0.99
-1.72
-2.55
-3.37
-4.12
-4.76
-5.24
-5.52
-5.51
-5.08
-4.10
-2.40
0.15
3.55
7.65
12.11
16.52
20.49
23.77
26.21
27.76
28.30
27.71
25.89
22.86
18.83
14.12
9.03
3.84
-1.24
-5.95
-9.94
-12.81
-14.29
-14.39
-13.47
-12.12
-10.95
-10.38
-10.59
-11.42
-12.56
-13.57
-14.02
-13.63
-12.34
-10.37
-8.14
-6.13
-4.68
-3.88
-3.56
-3.43
-3.21
-2.76
-2.11
-1.39
-0.75
-0.26
0.11
0.43
0.79
1.20
1.61
1.97
2.26
2.46
2.56
2.51
2.23
1.68
0.89
0.04
-0.70
-1.23
-1.58
-1.94
-2.47
-3.18
-3.90
-4.35
-4.34
-3.86
-3.11
-2.41
-2.02
-2.00
-2.24
-2.48
-2.45
-1.94
-0.94
0.42
1.88
3.21
4.28
5.08
5.74
6.35
6.89
7.25
7.27
6.98
6.53
6.21
6.23
6.56
6.95
6.99
6.39
5.10
3.35
1.54
0.11
-0.72
-0.91
-0.66
-0.25
0.09
0.22
0.22
0.28
0.64
1.49
2.86
4.63
6.54
8.34
9.83
10.93
11.61
11.91
11.82
11.33
10.42
9.09
7.39
5.40
3.27
1.16
-0.80
-2.47
-3.76
-4.65
-5.17
-5.45
-5.70
-6.10
-6.77
-7.73
-8.86
-10.02
-11.08
-12.02
-12.91
-13.85
-14.90
-16.03
-17.15
-18.14
-18.97
-19.71
-20.53
-21.60
-22.97
-24.53
-26.00
-27.14
-27.84
-28.27
-28.84
-30.03
-32.19
-35.35
-39.18
-43.16
-46.75
-49.59
-51.63
-53.10
-54.39
-55.88
-57.79
-60.01
-62.09
-63.34
-63.02
-60.57
-55.92
-49.58
-42.55
-36.11
-31.41
-29.21
-29.58
-31.86
-34.83
-37.08
-37.41
-35.27
-30.98
-25.59
-20.55
-17.16
-16.05
-16.96
-18.72
-19.70
-18.29
-13.50
-5.33
5.30
16.93
28.13
38.07
46.65
54.34
61.66
68.79
75.40
80.85
84.63
86.63
87.16
86.71
85.64
83.96
81.45
77.92
73.43
68.35
63.27
58.69
54.90
51.83
49.20
46.61
43.81
40.76
37.70
34.97
32.88
31.53
30.73
30.13
29.40
28.43
27.36
26.47
26.03
26.07
26.38
26.70
26.86
26.93
27.23
28.15
29.94
32.54
35.60
38.60
41.13
43.05
44.63
46.44
49.11
53.04
58.18
64.01
69.77
74.80
78.84
82.12
85.26
88.97
93.78
100.01
107.74
116.71
126.06
133.84
137.11
132.66
118.38
94.55
64.09
31.52
1.14
-24.59
-45.44
-62.49
-76.68
-87.79
-94.83
-97.18
-95.76
-93.17
-92.52
-95.81
-102.79
-111.14
-117.76
-120.31
-118.21
-112.53
-105.19
-97.84
-91.29
-85.36
-79.42
-72.99
-66.11
-59.27
-53.15
-48.18
-44.34
-41.24
-38.34
-35.27
-32.01
-28.79
-25.95
-23.72
-22.12
-20.98
-19.99
-18.89
-17.54
-15.98
-14.37
-12.90
-11.74
-10.97
-10.57
-10.41
-10.35
-10.26
-10.10
-9.92
-9.82
-9.88
-10.19
-10.74
-11.46
-12.29
-13.15
-13.99
-14.80
-15.63
-16.58
-17.70
-19.03
-20.52
-22.07
-23.56
-24.94
-26.21
-27.52
-29.00
-30.78
-32.79
-34.82
-36.45
-37.11
-36.14
-32.84
-26.67
-17.42
-5.47
8.15
21.87
33.96
42.97
48.16
49.64
48.16
44.85
40.75
36.62
32.84
29.47
26.35
23.27
20.02
16.50
12.80
9.16
5.87
3.11
0.77
-1.51
-4.25
-7.83
-12.27
-17.14
-21.68
-25.19
-27.28
-28.08
-28.16
-28.21
-28.88
-30.64
-33.81
-38.27
-43.18
-46.65
-46.00
-38.79
-24.06
-3.32
19.65
40.11
54.30
60.87
61.05
57.57
53.10
49.03
45.43
41.69
37.48
33.19
29.63
27.46
26.67
26.56
26.22
24.88
22.40
19.26
16.23
14.01
12.90
12.69
12.80
12.56
11.53
9.70
7.43
5.26
3.65
2.79
2.59
2.71
2.82
2.64
2.12
1.35
0.53
-0.14
-0.53
-0.58
-0.39
-0.10
0.08
0.04
-0.25
-0.67
-1.06
-1.26
-1.20
-0.91
-0.51
-0.11
0.22
0.49
0.69
0.85
0.95
1.01
1.06
1.16
1.39
1.76
2.26
2.83
3.36
3.78
4.00
3.98
3.71
3.22
2.61
2.01
1.53
1.21
1.05
1.00
1.00
0.98
0.87
0.59
0.08
-0.66
-1.59
-2.60
-3.59
-4.44
-5.08
-5.48
-5.64
-5.57
-5.30
-4.87
-4.33
-3.73
-3.11
-2.50
-1.91
-1.38
-0.94
-0.60
-0.35
-0.15
-0.01
0.07
0.07
-0.00
-0.11
-0.16
-0.10
0.09
0.33
0.52
0.58
0.52
0.43
0.40
0.46
0.55
0.54
0.34
-0.03
-0.48
-0.85
-1.02
-0.97
-0.75
-0.49
-0.32
-0.26
-0.33
-0.44
-0.53
-0.57
-0.57
-0.56
-0.58
-0.66
-0.78
-0.85
-0.82
-0.68
-0.48
-0.33
-0.36
-0.59
-0.95
-1.33
-1.58
-1.65
-1.53
-1.33
-1.13
-0.98
-0.89
-0.80
-0.68
-0.51
-0.27
-0.03
0.18
0.33
0.38
0.33
0.19
-0.03
-0.28
-0.52
-0.69
-0.71
-0.57
-0.26
0.14
0.54
0.84
0.98
0.99
0.92
0.89
0.93
1.05
1.16
1.16
1.03
0.78
0.56
0.49
0.69
1.15
1.76
2.33
2.67
2.71
2.48
2.17
2.04
2.29
2.99
3.97
4.92
5.50
5.57
5.23
4.83
4.77
5.34
6.55
8.10
9.60
10.64
11.07
11.00
10.80
10.92
11.72
13.26
15.27
17.23
18.68
19.33
19.29
18.96
18.88
19.49
21.15
24.04
28.07
32.62
36.30
37.16
33.36
24.08
10.25
-5.60
-20.17
-30.78
-36.34
-37.50
-36.00
-33.56
-31.16
-28.86
-26.38
-23.60
-20.83
-18.67
-17.54
-17.34
-17.54
-17.45
-16.50
-14.59
-12.04
-9.44
-7.35
-6.06
-5.51
-5.33
-5.07
-4.37
-3.17
-1.61
0.01
1.49
2.75
3.89
5.00
6.14
7.27
8.28
9.18
10.08
11.23
12.87
15.07
17.65
20.24
22.41
23.89
24.73
25.29
26.08
27.51
29.77
32.76
36.16
39.49
42.13
43.42
42.77
39.93
35.25
29.73
24.66
20.99
18.80
17.09
14.19
8.63
-0.01
-10.81
-21.84
-31.01
-36.96
-39.44
-39.16
-37.23
-34.61
-31.84
-29.10
-26.44
-24.02
-22.09
-20.83
-20.23
-20.07
-19.98
-19.69
-19.16
-18.52
-18.02
-17.85
-18.05
-18.54
-19.17
-19.80
-20.33
-20.60
-20.49
-19.87
-18.75
-17.28
-15.74
-14.44
-13.52
-12.93
-12.43
-11.77
-10.83
-9.69
-8.60
-7.78
-7.31
-7.12
-7.02
-6.89
-6.70
-6.53
-6.48
-6.58
-6.74
-6.80
-6.65
-6.26
-5.71
-5.12
-4.60
-4.21
-3.92
-3.68
-3.43
-3.14
-2.83
-2.50
-2.15
-1.72
-1.13
-0.30
0.78
2.06
3.42
4.78
6.13
7.50
8.91
10.28
11.42
12.03
11.86
10.85
9.15
7.13
5.20
3.66
2.59
1.84
1.22
0.55
-0.19
-0.87
-1.33
-1.50
-1.44
-1.33
-1.34
-1.53
-1.81
-2.00
-1.96
-1.67
-1.23
-0.77
-0.36
0.07
0.64
1.45
2.46
3.47
4.24
4.61
4.58
4.33
4.06
3.92
3.88
3.79
3.44
2.73
1.72
0.57
-0.48
-1.26
-1.71
-1.88
-1.90
-1.92
-2.07
-2.36
-2.76
-3.17
-3.50
-3.63
-3.52
-3.17
-2.65
-2.06
-1.54
-1.17
-0.98
-0.95
-1.03
-1.15
-1.29
-1.45
-1.64
-1.85
-2.05
-2.20
-2.25
-2.20
-2.09
-1.97
-1.90
-1.95
-2.19
-2.64
-3.30
-4.06
-4.80
-5.39
-5.79
-5.99
-6.01
-5.83
-5.36
-4.48
-3.15
-1.44
0.41
2.07
3.22
3.74
3.71
3.41
3.22
3.44
4.14
5.12
5.97
6.27
5.76
4.50
2.78
1.05
-0.30
-1.06
-1.22
-0.84
-0.06
1.05
2.37
3.84
5.33
6.70
7.77
8.40
8.50
8.06
7.21
6.20
5.25
4.53
4.04
3.65
3.16
2.39
1.33
0.05
-1.27
-2.48
-3.51
-4.33
-4.97
-5.41
-5.60
-5.52
-5.20
-4.73
-4.27
-3.96
-3.87
-3.92
-4.00
-3.97
-3.76
-3.39
-2.94
-2.51
-2.19
-1.99
-1.85
-1.71
-1.51
-1.24
-0.91
-0.57
-0.24
0.09
0.42
0.76
1.06
1.28
1.35
1.29
1.15
0.99
0.86
0.76
0.67
0.55
0.41
0.23
0.06
-0.07
-0.15
-0.15
-0.06
0.12
0.32
0.48
0.51
0.40
0.21
0.03
-0.07
-0.07
-0.01
0.05
0.05
-0.01
-0.13
-0.27
-0.41
-0.52
-0.60
-0.60
-0.51
-0.33
-0.10
0.11
0.23
0.22
0.12
-0.06
-0.25
-0.42
-0.52
-0.53
-0.39
-0.12
0.22
0.51
0.65
0.54
0.23
-0.15
-0.42
-0.45
-0.22
0.15
0.49
0.65
0.61
0.40
0.15
-0.06
-0.16
-0.17
-0.11
-0.03
0.04
0.10
0.13
0.12
0.12
0.15
0.24
0.38
0.49
0.53
0.46
0.30
0.10
-0.08
-0.23
-0.35
-0.45
-0.53
-0.56
-0.52
-0.43
-0.32
-0.22
-0.19
-0.23
-0.33
-0.48
-0.62
-0.75
-0.81
-0.83
-0.80
-0.77
-0.78
-0.86
-1.00
-1.20
-1.43
-1.67
-1.91
-2.16
-2.37
-2.51
-2.56
-2.57
-2.59
-2.67
-2.84
-3.00
-3.03
-2.83
-2.36
-1.69
-1.03
-0.54
-0.33
-0.37
-0.57
-0.80
-0.98
-1.04
-0.92
-0.53
0.26
1.48
3.03
4.67
6.06
6.87
6.94
6.30
5.19
3.94
2.88
2.22
2.04
2.25
2.69
3.11
3.37
3.39
3.25
3.11
3.12
3.34
3.69
3.94
3.86
3.26
2.11
0.54
-1.21
-2.91
-4.36
-5.49
-6.34
-6.95
-7.37
-7.53
-7.34
-6.70
-5.59
-4.13
-2.51
-0.89
0.62
2.00
3.27
4.38
5.21
5.58
5.38
4.65
3.57
2.37
1.30
0.47
-0.14
-0.59
-1.01
-1.44
-1.91
-2.36
-2.74
-3.00
-3.11
-3.11
-3.05
-2.96
-2.81
-2.55
-2.13
-1.50
-0.64
0.42
1.63
2.90
4.10
5.06
5.68
5.90
5.79
5.50
5.13
4.75
4.32
3.78
3.12
2.41
1.78
1.33
1.07
0.92
0.80
0.69
0.64
0.77
1.13
1.69
2.26
2.64
2.64
2.22
1.43
0.42
-0.72
-1.91
-3.14
-4.36
-5.46
-6.28
-6.64
-6.50
-5.91
-5.08
-4.24
-3.58
-3.20
-3.09
-3.18
-3.34
-3.47
-3.46
-3.24
-2.77
-2.11
-1.35
-0.62
0.01
0.55
1.09
1.71
2.43
3.13
3.64
3.80
3.58
3.09
2.53
2.07
1.80
1.70
1.70
1.77
1.86
1.95
1.99
1.89
1.57
1.06
0.49
0.04
-0.17
-0.19
-0.20
-0.41
-0.95
-1.73
-2.54
-3.15
-3.45
-3.51
-3.53
-3.68
-4.04
-4.52
-4.99
-5.31
-5.45
-5.47
-5.46
-5.44
-5.39
-5.24
-4.99
-4.69
-4.49
-4.52
-4.88
-5.55
-6.45
-7.46
-8.42
-9.24
-9.88
-10.44
-11.07
-11.97
-13.29
-15.03
-17.06
-19.12
-20.99
-22.55
-23.88
-25.11
-26.40
-27.86
-29.57
-31.57
-33.86
-36.31
-38.61
-40.26
-40.76
-39.88
-37.90
-35.51
-33.53
-32.47
-32.25
-32.34
-32.20
-31.70
-31.29
-31.72
-33.48
-36.44
-40.00
-43.56
-47.13
-51.25
-56.39
-62.06
-66.40
-66.86
-61.62
-50.75
-36.46
-22.00
-10.05
-1.57
4.11
8.20
11.33
13.45
14.67
16.37
21.31
32.41
50.73
74.25
98.25
117.35
128.00
129.89
125.62
118.93
112.70
107.87
103.79
99.45
94.67
90.44
88.37
89.54
93.79
99.66
105.16
108.72
109.62
107.78
103.25
95.73
84.50
68.68
47.67
21.46
-9.08
-42.14
-75.02
-104.42
-127.22
-141.38
-146.76
-145.21
-140.02
-134.61
-131.51
-131.83
-135.29
-140.35
-144.31
-143.44
-133.68
-112.18
-78.93
-37.60
5.32
42.68
69.26
83.45
87.17
84.23
78.37
71.91
65.64
59.57
53.83
48.95
45.60
44.05
43.82
43.94
43.32
41.34
38.09
34.32
31.08
29.22
29.05
30.21
31.86
33.01
33.02
31.82
29.88
28.02
27.01
27.24
28.61
30.60
32.56
34.00
34.80
35.25
35.80
36.83
38.46
40.46
42.49
44.31
45.99
47.86
50.24
53.02
55.49
56.46
54.69
49.39
40.46
28.42
14.09
-1.70
-18.13
-34.26
-48.81
-60.34
-67.61
-70.17
-68.58
-64.31
-59.14
-54.45
-50.85
-48.22
-46.07
-43.96
-41.79
-39.74
-38.05
-36.89
-36.16
-35.62
-34.99
-34.17
-33.23
-32.48
-32.22
-32.62
-33.58
-34.72
-35.60
-35.93
-35.72
-35.28
-35.14
-35.69
-37.06
-39.02
-41.09
-42.72
-43.56
-43.52
-42.79
-41.77
-40.91
-40.67
-41.38
-43.07
-45.32
-47.10
-46.94
-43.23
-34.87
-21.78
-5.18
12.71
29.32
42.66
51.78
56.98
59.27
59.85
59.54
58.71
57.42
55.74
53.92
52.36
51.35
50.94
50.82
50.55
49.79
48.51
47.02
45.78
45.17
45.29
45.97
46.88
47.73
48.44
49.17
50.22
51.82
54.03
56.67
59.46
62.21
64.97
68.00
71.58
75.80
80.36
84.67
88.13
90.53
92.26
94.19
97.22
101.66
106.83
111.13
112.46
108.78
98.49
80.59
54.84
22.12
-15.21
-53.34
-87.62
-113.86
-129.72
-135.47
-133.70
-128.03
-121.58
-115.97
-111.30
-106.88
-102.15
-97.12
-92.26
-87.96
-84.28
-80.87
-77.39
-73.69
-69.95
-66.62
-64.00
-62.14
-60.76
-59.51
-58.15
-56.81
-55.81
-55.52
-56.07
-57.23
-58.51
-59.51
-60.16
-60.84
-62.19
-64.74
-68.51
-72.94
-77.07
-79.94
-81.09
-80.82
-80.01
-79.81
-81.23
-84.86
-90.72
-98.01
-104.78
-107.78
-102.92
-86.61
-57.47
-17.56
27.67
71.06
106.31
130.06
142.70
147.23
147.43
146.02
144.11
141.63
138.34
134.54
131.02
128.56
127.41
127.23
127.26
126.95
126.17
125.15
124.38
124.16
124.49
125.13
125.82
126.59
127.80
130.04
133.66
138.30
142.55
143.87
138.99
124.87
99.90
64.88
23.28
-19.66
-58.48
-89.20
-110.31
-122.60
-128.20
-129.34
-127.51
-123.47
-117.71
-110.97
-104.35
-98.90
-95.05
-92.40
-89.92
-86.55
-81.70
-75.54
-68.85
-62.66
-57.77
-54.41
-52.20
-50.41
-48.26
-45.28
-41.54
-37.56
-34.11
-31.85
-31.06
-31.50
-32.51
-33.30
-33.29
-32.40
-31.13
-30.28
-30.61
-32.39
-35.32
-38.60
-41.34
-42.94
-43.40
-43.31
-43.52
-44.81
-47.50
-51.31
-55.52
-59.25
-61.86
-63.22
-63.71
-64.03
-64.96
-67.06
-70.71
-75.90
-81.94
-86.99
-87.90
-80.95
-63.32
-34.77
1.49
39.47
72.56
96.07
108.83
113.09
112.71
111.07
109.61
107.99
105.15
100.67
95.23
90.26
86.97
85.70
85.76
85.93
85.10
82.75
79.18
75.17
71.68
69.43
68.64
69.01
69.84
70.35
69.93
68.45
66.26
64.07
62.73
62.91
64.89
68.47
73.09
77.85
81.31
81.44
75.78
62.26
40.22
11.32
-20.51
-50.16
-73.15
-87.16
-92.62
-91.97
-88.22
-83.60
-78.98
-74.28
-69.31
-64.34
-60.06
-57.11
-55.52
-54.61
-53.31
-50.73
-46.58
-41.35
-36.02
-31.58
-28.61
-27.06
-26.37
-25.69
-24.36
-22.15
-19.29
-16.31
-13.66
-11.54
-9.77
-8.01
-5.93
-3.50
-0.95
1.32
2.93
3.68
3.58
2.77
1.48
-0.08
-1.64
-2.93
-3.75
-4.00
-3.79
-3.35
-2.93
-2.67
-2.57
-2.49
-2.27
-1.85
-1.29
-0.71
-0.23
0.10
0.33
0.51
0.74
1.08
1.51
2.01
2.55
3.08
3.56
3.95
4.24
4.40
4.42
4.28
3.95
3.42
2.71
1.88
1.04
0.28
-0.30
-0.65
-0.80
-0.80
-0.74
-0.69
-0.72
-0.89
-1.25
-1.82
-2.56
-3.39
-4.15
-4.72
-5.02
-5.05
-4.85
-4.52
-4.11
-3.67
-3.23
-2.87
-2.65
-2.65
-2.83
-3.09
-3.26
-3.19
-2.85
-2.30
-1.69
-1.16
-0.78
-0.50
-0.21
0.24
0.90
1.70
2.48
3.07
3.36
3.36
3.17
2.95
2.80
2.74
2.75
2.85
3.05
3.44
4.03
4.72
5.35
5.71
5.71
5.38
4.91
4.49
4.24
4.14
4.07
3.91
3.62
3.25
2.90
2.64
2.50
2.45
2.39
2.25
1.99
1.61
1.18
0.82
0.64
0.66
0.84
1.04
1.13
1.01
0.69
0.27
-0.12
-0.43
-0.63
-0.78
-0.91
-1.02
-1.09
-1.10
-1.08
-1.07
-1.14
-1.32
-1.61
-1.95
-2.23
-2.37
-2.30
-2.03
-1.62
-1.19
-0.84
-0.66
-0.64
-0.68
-0.69
-0.60
-0.41
-0.23
-0.16
-0.28
-0.57
-0.91
-1.19
-1.31
-1.23
-1.04
-0.85
-0.77
-0.89
-1.20
-1.62
-2.00
-2.23
-2.28
-2.19
-2.10
-2.09
-2.19
-2.33
-2.39
-2.28
-2.03
-1.76
-1.62
-1.71
-2.00
-2.38
-2.72
-2.90
-2.90
-2.72
-2.40
-1.96
-1.41
-0.77
-0.11
0.48
0.85
0.91
0.60
0.03
-0.63
-1.14
-1.37
-1.29
-1.06
-0.94
-1.12
-1.65
-2.37
-2.99
-3.29
-3.19
-2.82
-2.42
-2.19
-2.18
-2.29
-2.36
-2.26
-1.99
-1.61
-1.21
-0.80
-0.36
0.17
0.76
1.31
1.70
1.86
1.86
1.85
2.00
2.42
3.08
3.88
4.70
5.44
6.11
6.73
7.32
7.85
8.27
8.50
8.55
8.47
8.34
8.26
8.21
8.11
7.84
7.31
6.57
5.77
5.08
4.61
4.35
4.15
3.86
3.37
2.70
1.95
1.26
0.75
0.44
0.30
0.27
0.27
0.25
0.19
0.06
-0.11
-0.32
-0.57
-0.86
-1.19
-1.54
-1.87
-2.15
-2.37
-2.56
-2.75
-2.98
-3.26
-3.60
-3.94
-4.27
-4.57
-4.84
-5.07
-5.22
-5.24
-5.09
-4.72
-4.16
-3.49
-2.85
-2.35
-2.05
-1.92
-1.85
-1.74
-1.54
-1.27
-1.01
-0.86
-0.84
-0.92
-1.04
-1.15
-1.23
-1.30
-1.35
-1.35
-1.25
-1.05
-0.81
-0.61
-0.58
-0.77
-1.13
-1.59
-2.01
-2.32
-2.48
-2.53
-2.50
-2.38
-2.21
-1.98
-1.76
-1.60
-1.54
-1.58
-1.67
-1.74
-1.74
-1.67
-1.55
-1.44
-1.37
-1.37
-1.42
-1.49
-1.58
-1.67
-1.76
-1.82
-1.80
-1.66
-1.36
-0.97
-0.55
-0.19
0.04
0.19
0.35
0.59
0.94
1.34
1.70
1.97
2.18
2.42
2.84
3.51
4.36
5.28
6.06
6.60
6.86
6.85
6.63
6.23
5.67
5.01
4.34
3.81
3.52
3.51
3.67
3.79
3.65
3.14
2.34
1.48
0.84
0.60
0.74
1.12
1.50
1.69
1.62
1.31
0.87
0.42
0.05
-0.20
-0.30
-0.26
-0.10
0.14
0.41
0.67
0.86
0.95
0.93
0.80
0.58
0.30
-0.02
-0.40
-0.85
-1.35
-1.85
-2.20
-2.28
-2.07
-1.67
-1.26
-1.02
-0.99
-1.11
-1.23
-1.27
-1.21
-1.14
-1.15
-1.27
-1.46
-1.65
-1.80
-1.93
-2.10
-2.32
-2.55
-2.71
-2.72
-2.55
-2.27
-2.01
-1.89
-2.00
-2.29
-2.65
-2.92
-2.99
-2.84
-2.58
-2.36
-2.29
-2.38
-2.55
-2.69
-2.71
-2.58
-2.32
-1.97
-1.54
-1.05
-0.53
-0.03
0.32
0.44
0.27
-0.14
-0.69
-1.25
-1.68
-1.88
-1.80
-1.45
-0.93
-0.37
0.07
0.31
0.36
0.33
0.35
0.52
0.84
1.22
1.53
1.69
1.72
1.72
1.82
2.09
2.53
3.02
3.47
3.81
4.04
4.20
4.34
4.46
4.53
4.48
4.29
3.95
3.52
3.05
2.63
2.30
2.09
2.03
2.11
2.29
2.54
2.80
3.01
3.11
3.07
2.84
2.45
1.97
1.52
1.22
1.09
1.10
1.12
1.02
0.72
0.27
-0.21
-0.58
-0.78
-0.85
-0.90
-1.04
-1.30
-1.63
-1.92
-2.10
-2.16
-2.15
-2.11
-2.08
-2.04
-1.96
-1.82
-1.59
-1.31
-0.99
-0.68
-0.43
-0.28
-0.27
-0.45
-0.82
-1.32
-1.87
-2.35
-2.65
-2.71
-2.56
-2.24
-1.85
-1.46
-1.13
-0.90
-0.82
-0.89
-1.10
-1.36
-1.57
-1.64
-1.51
-1.24
-0.91
-0.63
-0.43
-0.28
-0.13
0.05
0.26
0.46
0.59
0.62
0.58
0.51
0.50
0.58
0.78
1.02
1.19
1.19
1.01
0.69
0.41
0.32
0.49
0.88
1.32
1.64
1.68
1.43
0.97
0.46
0.03
-0.22
-0.31
-0.28
-0.22
-0.16
-0.10
-0.01
0.12
0.23
0.20
-0.04
-0.47
-0.98
-1.38
-1.50
-1.30
-0.86
-0.34
0.09
0.35
0.45
0.43
0.37
0.33
0.32
0.32
0.32
0.29
0.28
0.31
0.42
0.63
0.91
1.17
1.31
1.28
1.07
0.75
0.46
0.29
0.28
0.39
0.53
0.66
0.76
0.88
1.04
1.23
1.36
1.30
1.00
0.46
-0.18
-0.75
-1.09
-1.13
-0.91
-0.56
-0.23
-0.03
-0.00
-0.12
-0.30
-0.48
-0.63
-0.76
-0.89
-1.00
-1.06
-1.03
-0.89
-0.70
-0.54
-0.47
-0.48
-0.50
-0.45
-0.31
-0.14
-0.05
-0.13
-0.39
-0.71
-0.93
-0.93
-0.70
-0.32
0.08
0.38
0.52
0.55
0.56
0.62
0.77
0.94
1.06
1.06
0.93
0.75
0.65
0.72
0.94
1.24
1.47
1.53
1.41
1.20
1.03
1.00
1.14
1.39
1.64
1.83
1.94
2.10
2.41
2.98
3.79
4.69
5.45
5.89
5.95
5.75
5.46
5.24
5.09
4.94
4.66
4.22
3.76
3.47
3.49
3.78
4.10
4.11
3.57
2.45
0.90
-0.83
-2.57
-4.23
-5.79
-7.20
-8.30
-8.91
-8.87
-8.18
-7.06
-5.79
-4.63
-3.73
-3.04
-2.46
-1.86
-1.23
-0.61
-0.09
0.28
0.51
0.67
0.82
1.01
1.21
1.36
1.42
1.37
1.31
1.38
1.73
2.43
3.47
4.69
5.90
6.97
7.83
8.58
9.38
10.40
11.73
13.30
14.90
16.25
17.18
17.66
17.83
17.92
18.16
18.68
19.56
20.81
22.36
23.88
24.69
23.86
20.58
14.56
6.36
-2.71
-11.09
-17.54
-21.65
-23.85
-25.06
-26.14
-27.52
-29.09
-30.48
-31.35
-31.61
-31.42
-31.07
-30.77
-30.57
-30.34
-29.82
-28.85
-27.38
-25.56
-23.53
-21.34
-18.90
-15.94
-12.28
-7.93
-3.19
1.43
5.36
8.21
9.89
10.58
10.62
10.40
10.20
10.19
10.42
10.86
11.43
12.00
12.42
12.55
12.33
11.76
10.96
10.07
9.24
8.59
8.13
7.84
7.65
7.49
7.27
6.89
6.22
5.15
3.65
1.73
-0.50
-2.89
-5.27
-7.48
-9.41
-11.01
-12.25
-13.16
-13.79
-14.24
-14.62
-15.06
-15.65
-16.44
-17.44
-18.62
-19.91
-21.24
-22.52
-23.66
-24.62
-25.41
-26.11
-26.83
-27.67
-28.65
-29.68
-30.58
-31.16
-31.29
-30.90
-29.95
-28.37
-26.02
-22.64
-17.96
-11.76
-3.95
5.43
16.26
28.27
41.00
53.72
65.45
75.18
82.18
86.29
87.99
88.19
87.76
87.11
85.92
83.23
77.81
68.75
55.92
40.11
22.81
5.75
-9.62
-22.47
-32.60
-40.24
-45.59
-48.64
-49.22
-47.26
-43.07
-37.46
-31.54
-26.31
-22.36
-19.69
-17.89
-16.43
-14.94
-13.36
-11.87
-10.77
-10.28
-10.39
-10.90
-11.50
-11.88
-11.89
-11.57
-11.17
-10.97
-11.22
-11.99
-13.19
-14.67
-16.30
-18.02
-19.89
-21.96
-24.32
-27.02
-29.99
-33.04
-35.81
-37.83
-38.68
-38.06
-35.89
-32.20
-26.98
-20.15
-11.68
-1.81
8.82
19.35
29.08
37.75
45.60
53.04
60.20
66.70
71.80
74.90
76.07
76.08
75.92
76.12
76.25
75.00
70.83
62.77
51.01
36.81
22.03
8.36
-3.21
-12.54
-20.03
-26.24
-31.52
-35.85
-39.02
-40.76
-40.96
-39.73
-37.37
-34.27
-30.81
-27.25
-23.76
-20.42
-17.33
-14.63
-12.48
-11.03
-10.30
-10.18
-10.47
-10.97
-11.60
-12.40
-13.48
-14.99
-16.97
-19.35
-21.93
-24.40
-26.52
-28.09
-29.06
-29.51
-29.56
-29.30
-28.69
-27.61
-25.96
-23.71
-20.95
-17.83
-14.39
-10.50
-5.83
-0.06
6.98
15.10
23.74
32.07
39.29
44.84
48.60
50.82
52.01
52.66
53.06
53.19
52.86
51.74
49.54
46.02
41.02
34.51
26.59
17.65
8.30
-0.75
-8.88
-15.84
-21.74
-26.93
-31.62
-35.72
-38.74
-40.04
-39.22
-36.43
-32.44
-28.37
-25.39
-24.19
-24.83
-26.71
-28.90
-30.53
-31.19
-31.15
-31.28
-32.68
-36.18
-41.94
-49.24
-56.66
-62.61
-65.90
-66.24
-64.34
-61.68
-59.92
-60.22
-62.69
-66.04
-67.53
-63.34
-49.55
-23.72
13.70
58.78
104.87
144.72
173.08
188.39
192.94
191.43
188.71
187.90
189.46
191.44
190.31
182.10
163.61
133.55
93.34
47.16
1.00
-39.19
-69.32
-88.21
-97.15
-98.77
-95.56
-89.25
-80.90
-71.55
-62.57
-55.40
-50.93
-48.97
-48.33
-47.41
-45.11
-41.36
-37.09
-33.75
-32.52
-33.75
-36.79
-40.42
-43.36
-44.79
-44.58
-43.09
-40.89
-38.30
-35.21
-31.07
-25.14
-16.83
-6.04
6.59
19.81
32.06
41.96
48.74
52.48
53.91
54.10
53.90
53.53
52.52
50.02
45.27
38.06
28.88
18.70
8.64
-0.50
-8.40
-15.16
-20.99
-25.96
-29.85
-32.33
-33.15
-32.39
-30.44
-27.84
-25.04
-22.28
-19.60
-16.95
-14.41
-12.20
-10.68
-10.19
-10.85
-12.56
-14.97
-17.70
-20.39
-22.87
-25.04
-26.87
-28.25
-28.91
-28.45
-26.43
-22.43
-16.25
-7.90
2.34
13.90
25.98
37.57
47.66
55.44
60.53
63.05
63.51
62.50
60.27
56.61
51.08
43.33
33.54
22.50
11.33
0.97
-8.11
-15.96
-22.78
-28.61
-33.05
-35.49
-35.50
-33.20
-29.28
-24.82
-20.79
-17.76
-15.77
-14.54
-13.69
-12.98
-12.38
-12.04
-12.14
-12.79
-13.97
-15.56
-17.37
-19.26
-21.21
-23.29
-25.51
-27.70
-29.41
-29.94
-28.55
-24.65
-18.01
-8.84
2.25
14.34
26.34
37.10
45.67
51.48
54.48
55.25
54.69
53.69
52.75
51.69
49.77
46.09
40.08
31.81
22.00
11.73
1.96
-6.79
-14.44
-21.16
-26.95
-31.48
-34.22
-34.78
-33.19
-30.09
-26.47
-23.30
-21.14
-20.01
-19.57
-19.35
-19.06
-18.71
-18.57
-18.96
-20.12
-22.05
-24.52
-27.03
-28.87
-29.29
-27.56
-23.13
-15.78
-5.69
6.47
19.64
32.51
43.78
52.49
58.29
61.43
62.54
62.20
60.51
57.00
50.95
41.93
30.18
16.73
3.06
-9.43
-19.77
-27.55
-32.72
-35.37
-35.63
-33.77
-30.32
-26.16
-22.32
-19.62
-18.49
-18.81
-20.13
-21.95
-23.85
-25.56
-26.84
-27.44
-26.98
-25.12
-21.55
-16.11
-8.72
0.53
11.35
23.08
34.73
45.07
52.89
57.32
57.98
55.02
49.02
40.73
31.02
20.67
10.39
0.73
-7.92
-15.32
-21.24
-25.44
-27.65
-27.74
-25.87
-22.56
-18.61
-14.85
-11.89
-10.03
-9.24
-9.34
-10.07
-11.24
-12.74
-14.51
-16.39
-18.08
-19.08
-18.79
-16.61
-12.14
-5.33
3.44
13.40
23.45
32.35
38.87
42.10
41.62
37.67
31.05
22.87
14.23
5.90
-1.72
-8.49
-14.27
-18.85
-21.87
-23.07
-22.48
-20.43
-17.52
-14.40
-11.57
-9.28
-7.53
-6.26
-5.44
-5.13
-5.49
-6.63
-8.52
-10.93
-13.51
-15.83
-17.50
-18.16
-17.49
-15.23
-11.20
-5.32
2.32
11.38
21.25
31.05
39.68
46.02
49.16
48.63
44.57
37.71
29.13
19.90
10.82
2.31
-5.48
-12.41
-18.21
-22.48
-24.84
-25.19
-23.81
-21.34
-18.50
-15.88
-13.71
-11.91
-10.30
-8.78
-7.45
-6.56
-6.37
-6.99
-8.31
-9.99
-11.67
-13.11
-14.30
-15.37
-16.45
-17.42
-17.82
-16.95
-14.10
-8.80
-1.01
8.86
20.04
31.51
42.05
50.34
55.16
55.67
51.73
44.08
34.19
23.74
14.10
5.93
-0.83
-6.64
-11.96
-16.86
-20.99
-23.82
-24.96
-24.34
-22.35
-19.55
-16.53
-13.66
-11.12
-8.94
-7.17
-5.96
-5.47
-5.81
-6.97
-8.80
-11.11
-13.66
-16.17
-18.28
-19.41
-18.86
-15.90
-9.96
-0.86
10.94
24.24
37.17
47.53
53.32
53.38
47.72
37.56
24.81
11.50
-0.75
-10.97
-18.68
-23.69
-25.95
-25.63
-23.16
-19.34
-15.09
-11.26
-8.42
-6.73
-6.16
-6.56
-7.85
-9.98
-12.72
-15.59
-17.68
-17.90
-15.14
-8.78
1.03
13.16
25.67
36.32
43.09
44.83
41.47
33.89
23.56
12.07
0.78
-9.24
-17.23
-22.64
-25.18
-25.00
-22.69
-19.21
-15.68
-12.93
-11.33
-10.77
-10.97
-11.74
-13.05
-14.85
-16.83
-18.21
-17.90
-14.81
-8.32
1.39
13.34
25.89
37.13
45.27
49.04
47.87
42.02
32.41
20.39
7.50
-4.78
-15.19
-22.72
-26.81
-27.48
-25.43
-21.95
-18.48
-16.21
-15.63
-16.55
-18.24
-19.82
-20.48
-19.63
-16.74
-11.42
-3.45
6.95
18.96
31.09
41.33
47.66
48.50
43.23
32.46
17.89
2.02
-12.46
-23.33
-29.41
-30.88
-29.12
-26.20
-24.13
-24.00
-25.63
-27.76
-28.86
-28.03
-25.51
-22.59
-20.73
-20.72
-22.21
-23.95
-24.12
-20.59
-11.01
6.85
33.97
68.51
104.80
134.09
147.31
138.97
110.04
68.06
24.21
-11.30
-33.09
-41.75
-42.04
-39.56
-37.94
-37.80
-37.74
-36.11
-32.24
-26.67
-20.54
-14.64
-8.95
-3.00
3.52
10.12
15.49
17.92
16.04
9.46
-0.94
-13.16
-24.69
-33.20
-37.27
-36.68
-32.42
-26.20
-19.72
-14.12
-9.66
-6.14
-3.48
-2.13
-2.86
-5.96
-10.57
-14.65
-16.04
-13.77
-8.82
-3.79
-1.42
-3.01
-7.69
-12.90
-16.01
-15.84
-13.24
-10.43
-9.57
-11.48
-15.23
-18.66
-19.61
-17.08
-11.74
-5.65
-1.40
-0.87
-4.37
-10.41
-16.38
-19.78
-19.38
-15.74
-10.89
-7.37
-7.22
-11.29
-19.17
-29.23
-38.64
-43.64
-40.24
-25.57
0.58
34.98
71.62
103.77
126.61
138.96
143.35
144.29
145.93
150.25
156.32
160.95
159.81
148.99
126.18
91.75
49.02
3.64
-37.99
-70.71
-92.04
-102.41
-104.18
-100.21
-92.77
-83.42
-73.46
-64.46
-58.09
-55.50
-56.65
-60.14
-63.84
-65.87
-65.53
-63.49
-61.36
-60.93
-63.16
-67.78
-73.40
-78.06
-80.21
-79.42
-76.76
-74.28
-74.15
-77.61
-84.21
-92.09
-98.83
-102.66
-103.24
-101.65
-99.65
-98.48
-98.12
-97.26
-94.00
-86.53
-73.51
-54.00
-27.41
6.25
45.73
87.99
128.43
161.97
184.79
195.69
196.40
190.64
182.61
175.59
171.44
170.77
173.44
178.88
186.18
194.04
201.14
206.76
211.07
215.14
219.95
225.41
229.61
228.92
219.06
196.58
160.20
111.56
55.13
-2.77
-55.42
-97.37
-125.65
-140.24
-143.60
-139.56
-131.98
-123.69
-116.19
-109.85
-104.58
-100.25
-96.78
-94.03
-91.56
-88.73
-84.95
-80.01
-74.19
-68.16
-62.77
-58.59
-55.79
-54.07
-52.83
-51.53
-49.82
-47.68
-45.35
-43.14
-41.18
-39.40
-37.60
-35.63
-33.58
-31.85
-30.93
-31.12
-32.34
-34.00
-35.27
-35.42
-34.22
-32.04
-29.70
-28.14
-28.08
-29.72
-32.64
-35.86
-38.06
-37.95
-34.73
-28.37
-19.61
-9.59
0.67
10.58
20.05
29.15
37.79
45.52
51.70
55.90
58.17
59.09
59.39
59.62
59.85
59.79
59.12
57.74
55.89
53.96
52.17
50.39
48.10
44.59
39.37
32.41
24.19
15.46
6.84
-1.34
-9.04
-16.22
-22.58
-27.55
-30.56
-31.34
-30.22
-28.02
-25.70
-23.97
-23.03
-22.63
-22.28
-21.59
-20.47
-19.07
-17.70
-16.56
-15.70
-15.04
-14.48
-14.02
-13.75
-13.77
-14.03
-14.29
-14.17
-13.35
-11.81
-9.82
-7.83
-6.18
-4.96
-3.88
-2.47
-0.38
2.44
5.54
8.17
9.53
9.17
7.21
4.36
1.70
0.13
0.04
1.03
2.19
2.49
1.30
-1.32
-4.68
-7.81
-9.83
-10.26
-9.08
-6.65
-3.61
-0.71
1.25
1.63
0.10
-3.21
-7.41
-11.16
-12.95
-11.74
-7.59
-1.94
2.88
4.74
2.89
-1.57
-6.30
-9.04
-8.93
-6.96
-5.17
-5.22
-7.31
-10.11
-11.84
-11.54
-9.67
-7.63
-6.77
-7.43
-8.85
-9.88
-9.75
-8.53
-6.95
-5.77
-5.49
-6.27
-7.98
-10.42
-13.22
-15.69
-16.82
-15.56
-11.17
-3.46
7.16
19.94
33.93
48.11
61.51
73.20
82.33
88.28
90.85
90.18
86.44
79.44
68.51
52.93
32.60
8.82
-15.64
-37.21
-52.72
-60.58
-61.22
-56.74
-49.83
-42.67
-36.40
-31.18
-26.74
-22.99
-20.23
-19.04
-19.85
-22.70
-27.14
-32.25
-37.00
-40.65
-43.03
-44.56
-45.98
-47.79
-49.76
-50.74
-49.04
-43.12
-32.27
-16.93
1.42
20.81
39.35
55.67
69.05
79.31
86.67
91.56
94.53
96.11
96.65
96.02
93.51
87.78
77.20
60.59
38.01
11.18
-16.64
-41.61
-60.44
-71.41
-74.73
-72.13
-65.93
-58.19
-50.20
-42.65
-36.00
-30.83
-27.90
-27.85
-30.77
-36.04
-42.45
-48.62
-53.34
-55.95
-56.20
-53.96
-49.10
-41.45
-31.01
-17.95
-2.48
15.38
35.81
58.84
83.84
109.13
132.04
149.41
158.18
156.06
142.01
116.55
81.99
42.28
2.43
-32.54
-58.84
-74.79
-80.98
-79.53
-73.06
-63.89
-53.80
-44.26
-36.56
-31.66
-29.90
-30.72
-32.90
-35.06
-36.37
-36.77
-36.91
-37.80
-40.28
-44.69
-50.56
-56.51
-60.35
-59.50
-51.84
-36.61
-14.90
10.45
35.70
57.44
73.58
83.80
89.15
91.41
92.18
92.47
92.57
92.19
90.53
86.43
78.40
65.11
45.95
21.67
-5.47
-31.97
-54.10
-68.92
-75.22
-73.78
-66.86
-57.29
-47.56
-39.32
-33.39
-30.03
-29.22
-30.87
-34.67
-40.06
-46.18
-51.88
-55.86
-56.91
-54.27
-47.89
-38.51
-27.24
-14.83
-1.09
15.13
35.19
59.42
86.34
112.78
134.76
148.85
152.90
146.19
129.06
102.66
69.06
31.59
-5.29
-36.73
-58.90
-70.20
-71.62
-65.99
-56.73
-46.62
-37.36
-29.73
-24.01
-20.38
-18.94
-19.62
-22.03
-25.52
-29.41
-33.10
-36.23
-38.62
-40.12
-40.37
-38.70
-34.23
-26.31
-14.91
-0.91
14.07
28.19
40.01
48.91
55.03
58.77
60.29
59.29
55.15
47.49
36.53
23.26
9.04
-4.80
-17.34
-28.05
-36.56
-42.44
-45.24
-44.72
-41.16
-35.49
-29.10
-23.39
-19.32
-17.18
-16.63
-17.03
-17.82
-18.71
-19.74
-21.17
-23.27
-26.23
-30.02
-34.26
-38.08
-40.23
-39.28
-34.19
-24.85
-12.19
2.31
17.33
32.35
47.70
63.87
80.72
96.97
110.46
118.80
120.13
113.49
98.84
76.94
49.49
19.17
-10.44
-35.53
-53.08
-61.91
-62.96
-58.68
-51.97
-45.05
-39.10
-34.41
-30.86
-28.40
-27.13
-27.18
-28.48
-30.79
-33.77
-37.20
-40.99
-44.96
-48.54
-50.58
-49.61
-44.52
-35.27
-23.00
-9.38
4.44
18.48
33.78
51.36
71.12
91.34
109.35
122.70
129.99
130.81
124.96
111.88
90.89
62.28
28.38
-6.28
-36.23
-57.04
-67.00
-67.43
-61.65
-53.37
-45.31
-38.70
-33.60
-29.63
-26.46
-23.98
-22.22
-21.16
-20.73
-20.88
-21.58
-22.91
-24.98
-27.82
-31.27
-34.86
-37.85
-39.23
-37.99
-33.50
-25.78
-15.59
-4.05
7.85
19.63
31.31
43.07
54.69
65.22
73.15
76.84
75.17
67.78
55.17
38.48
19.30
-0.52
-18.92
-33.95
-44.10
-48.66
-47.98
-43.29
-36.34
-28.96
-22.63
-18.24
-16.02
-15.66
-16.51
-17.95
-19.59
-21.40
-23.63
-26.54
-30.19
-34.37
-38.57
-42.08
-44.11
-43.90
-40.88
-35.06
-27.13
-18.29
-9.40
-0.22
10.80
25.88
46.52
72.22
100.13
125.83
144.68
153.11
149.28
133.07
105.91
70.71
31.81
-5.49
-36.02
-56.23
-65.25
-64.99
-58.98
-50.79
-42.82
-36.15
-31.01
-27.46
-25.79
-26.37
-29.24
-33.81
-38.83
-42.66
-43.62
-40.51
-32.99
-21.71
-8.15
5.89
18.84
29.89
39.01
46.66
53.19
58.43
61.55
61.33
56.73
47.46
34.20
18.44
2.10
-13.03
-25.62
-34.95
-40.82
-43.37
-42.95
-40.08
-35.55
-30.34
-25.49
-21.87
-19.99
-19.98
-21.66
-24.67
-28.35
-31.73
-33.50
-32.42
-27.79
-19.80
-9.57
1.39
11.75
20.85
28.60
35.25
40.97
45.74
49.50
52.22
53.94
54.46
53.17
49.09
41.33
29.74
15.14
-0.74
-15.80
-28.24
-36.92
-41.43
-41.96
-39.09
-33.71
-26.92
-19.95
-13.91
-9.62
-7.43
-7.25
-8.68
-11.20
-14.37
-17.86
-21.37
-24.58
-26.97
-27.86
-26.53
-22.41
-15.25
-5.29
6.84
20.19
33.68
46.18
56.58
63.83
66.99
65.45
59.05
48.27
34.19
18.33
2.40
-11.98
-23.50
-31.36
-35.34
-35.74
-33.35
-29.22
-24.48
-20.17
-17.02
-15.42
-15.42
-16.83
-19.32
-22.46
-25.66
-28.15
-28.95
-27.18
-22.26
-14.16
-3.47
8.80
21.51
33.67
44.53
53.46
59.74
62.54
61.00
54.66
43.71
29.18
12.80
-3.37
-17.38
-27.76
-33.78
-35.49
-33.62
-29.41
-24.28
-19.53
-16.06
-14.26
-14.12
-15.38
-17.74
-20.78
-23.81
-25.70
-24.98
-20.29
-10.94
2.62
18.80
35.16
49.03
58.11
60.94
57.09
47.22
32.92
16.42
0.18
-13.61
-23.44
-28.72
-29.81
-27.84
-24.32
-20.80
-18.45
-17.90
-19.04
-21.20
-23.28
-24.16
-22.92
-19.13
-12.82
-4.44
5.33
15.67
25.74
34.55
41.00
43.98
42.67
36.85
27.08
14.68
1.39
-10.99
-20.92
-27.34
-29.78
-28.38
-23.97
-17.94
-11.92
-7.31
-4.94
-4.95
-6.97
-10.37
-14.39
-18.07
-20.17
-19.36
-14.64
-5.83
6.15
19.52
32.08
41.84
47.42
48.17
44.15
36.00
24.82
12.05
-0.71
-11.95
-20.54
-25.84
-27.74
-26.59
-23.17
-18.54
-13.90
-10.28
-8.28
-8.06
-9.42
-12.01
-15.44
-19.11
-22.03
-22.82
-20.06
-12.81
-1.22
13.39
28.74
42.18
51.39
54.85
52.08
43.63
30.86
15.73
0.37
-13.29
-23.96
-31.11
-34.95
-36.17
-35.62
-34.19
-32.69
-31.86
-32.21
-33.89
-36.52
-39.32
-41.40
-42.18
-41.61
-40.02
-37.78
-34.98
-31.20
-25.58
-17.05
-4.48
13.09
35.99
63.50
93.39
121.89
144.16
155.41
152.24
133.97
103.00
64.42
24.66
-10.14
-35.67
-50.21
-54.63
-51.66
-44.80
-37.20
-31.00
-27.17
-25.81
-26.62
-29.05
-32.40
-35.58
-37.14
-35.54
-29.61
-19.03
-4.68
11.57
27.33
40.30
48.83
52.04
49.89
42.87
31.88
18.13
3.14
-11.37
-23.58
-31.97
-35.61
-34.50
-29.62
-22.78
-16.08
-11.35
-9.60
-10.89
-14.48
-19.13
-23.37
-25.66
-24.55
-19.01
-8.81
5.13
20.73
35.18
45.76
50.55
48.91
41.46
29.70
15.55
1.04
-11.90
-21.63
-27.08
-28.09
-25.48
-20.91
-16.39
-13.64
-13.57
-16.03
-19.92
-23.46
-24.71
-22.03
-14.57
-2.54
12.68
28.76
42.88
52.36
55.31
51.10
40.43
25.31
8.49
-7.03
-18.76
-25.31
-26.65
-24.06
-19.52
-15.06
-12.16
-11.55
-13.22
-16.56
-20.38
-22.96
-22.38
-17.02
-6.35
8.59
25.21
40.07
49.94
52.79
48.18
37.07
21.46
3.86
-13.01
-26.62
-35.00
-37.42
-34.80
-29.49
-24.43
-21.87
-22.38
-24.57
-25.78
-23.38
-16.02
-4.30
9.54
22.38
31.39
34.72
31.76
23.09
10.18
-4.82
-19.36
-30.76
-36.97
-37.20
-32.59
-25.94
-20.90
-20.39
-25.10
-32.72
-38.60
-37.56
-26.23
-4.89
22.21
48.50
67.53
75.67
73.23
63.92
52.96
44.80
41.60
42.90
46.44
49.31
49.05
44.12
34.03
19.26
1.17
-18.04
-35.68
-48.99
-56.02
-56.12
-50.29
-40.89
-31.01
-23.57
-20.56
-22.48
-28.17
-34.97
-39.42
-38.23
-29.44
-13.17
8.06
30.06
48.15
58.57
59.47
51.13
35.55
15.71
-5.08
-23.75
-37.75
-45.61
-47.31
-44.30
-39.11
-34.31
-31.44
-30.36
-29.39
-26.20
-18.79
-6.21
11.36
32.85
56.51
79.86
99.43
111.10
111.11
97.53
71.61
38.04
3.68
-24.62
-42.32
-48.51
-45.63
-38.11
-30.37
-25.37
-24.03
-25.48
-27.85
-29.11
-27.73
-22.93
-14.74
-3.94
8.00
19.22
27.78
32.16
31.75
27.12
19.83
11.83
4.72
-0.73
-4.72
-8.03
-11.46
-15.37
-19.50
-23.15
-25.47
-25.84
-24.10
-20.65
-16.34
-12.32
-9.69
-9.13
-10.63
-13.29
-15.49
-15.38
-11.62
-4.05
5.97
15.85
22.63
24.17
20.08
11.94
2.66
-4.75
-8.28
-7.48
-3.27
2.85
9.45
15.57
20.55
23.81
24.72
22.76
17.88
10.70
2.43
-5.62
-12.39
-17.48
-21.01
-23.40
-24.87
-25.30
-24.16
-20.87
-15.21
-7.67
0.45
7.30
11.07
10.57
5.62
-2.80
-12.93
-22.72
-30.52
-35.42
-37.45
-37.22
-35.61
-33.28
-30.52
-27.42
-24.23
-21.63
-20.67
-22.30
-26.79
-33.44
-40.77
-47.18
-51.70
-54.46
-56.53
-59.34
-63.90
-70.29
-77.63
-84.45
-89.42
-91.93
-92.23
-91.20
-89.80
-88.59
-87.54
-86.27
-84.36
-81.51
-77.51
-71.87
-63.71
-51.85
-35.36
-14.24
10.23
35.50
58.49
76.51
88.11
93.50
94.30
92.85
91.36
91.22
92.72
95.26
97.81
99.55
100.09
99.49
97.91
95.50
92.22
88.06
83.13
77.79
72.57
67.92
64.03
60.73
57.55
54.02
49.92
45.44
41.10
37.56
35.30
34.42
34.57
35.12
35.32
34.70
33.21
31.32
29.88
29.69
31.22
34.24
38.00
41.44
43.76
44.80
45.14
45.88
48.12
52.43
58.56
65.50
71.91
76.64
79.25
80.17
80.51
81.78
85.36
92.10
101.84
113.05
122.67
126.37
119.70
99.62
66.11
22.85
-23.60
-65.85
-98.17
-118.17
-126.94
-127.80
-124.35
-119.11
-113.13
-106.67
-99.95
-93.70
-88.79
-85.70
-84.01
-82.55
-79.94
-75.36
-68.95
-61.68
-54.93
-49.72
-46.36
-44.32
-42.61
-40.29
-36.86
-32.38
-27.36
-22.42
-18.01
-14.24
-10.97
-7.91
-4.78
-1.39
2.31
6.24
10.22
13.96
17.20
19.70
21.37
22.28
22.60
22.60
22.48
22.36
22.26
22.18
22.14
22.27
22.65
23.07
22.89
21.14
16.86
9.73
0.33
-9.84
-18.97
-25.64
-29.36
-30.58
-30.27
-29.28
-27.96
-26.22
-23.86
-20.93
-17.81
-15.06
-13.06
-11.82
-11.01
-10.20
-9.09
-7.66
-6.11
-4.74
-3.74
-3.16
-2.89
-2.76
-2.61
-2.40
-2.18
-2.09
-2.26
-2.71
-3.34
-3.94
-4.29
-4.24
-3.76
-2.95
-1.92
-0.79
0.41
1.62
2.81
3.86
4.64
5.06
5.09
4.77
4.21
3.49
2.68
1.81
0.91
0.03
-0.78
-1.50
-2.11
-2.63
-3.15
-3.72
-4.40
-5.19
-6.03
-6.82
-7.42
-7.71
-7.63
-7.27
-6.81
-6.52
-6.62
-7.21
-8.23
-9.45
-10.64
-11.56
-12.07
-12.12
-11.77
-11.14
-10.44
-9.85
-9.46
-9.19
-8.76
-7.79
-5.99
-3.35
-0.14
3.12
5.92
7.98
9.30
10.11
10.71
11.22
11.62
11.73
11.39
10.57
9.40
8.11
6.95
6.08
5.49
5.04
4.48
3.58
2.19
0.31
-1.92
-4.29
-6.59
-8.71
-10.63
-12.39
-14.04
-15.51
-16.67
-17.37
-17.50
-17.00
-15.79
-13.74
-10.65
-6.42
-1.12
4.79
10.56
15.42
18.87
20.91
21.92
22.34
22.35
21.73
20.11
17.30
13.55
9.57
6.19
3.90
2.71
2.18
1.77
1.18
0.50
0.07
0.20
0.95
2.09
3.21
3.98
4.21
3.93
3.30
2.50
1.65
0.78
-0.09
-0.98
-1.85
-2.67
-3.42
-4.11
-4.77
-5.40
-6.01
-6.52
-6.90
-7.10
-7.14
-7.05
-6.86
-6.57
-6.17
-5.61
-4.86
-3.94
-2.94
-2.03
-1.39
-1.14
-1.27
-1.66
-2.08
-2.37
-2.44
-2.34
-2.15
-1.92
-1.60
-1.06
-0.23
0.85
2.03
3.15
4.06
4.76
5.33
5.86
6.37
6.80
7.04
6.98
6.58
5.84
4.84
3.62
2.24
0.75
-0.81
-2.38
-3.91
-5.35
-6.67
-7.82
-8.76
-9.45
-9.86
-10.01
-9.93
-9.65
-9.19
-8.53
-7.67
-6.71
-5.85
-5.37
-5.52
-6.38
-7.84
-9.62
-11.42
-13.02
-14.35
-15.46
-16.44
-17.38
-18.37
-19.52
-20.94
-22.65
-24.58
-26.49
-28.01
-28.82
-28.84
-28.24
-27.52
-27.19
-27.63
-28.81
-30.31
-31.49
-31.82
-31.15
-29.86
-28.70
-28.52
-29.93
-33.06
-37.51
-42.55
-47.32
-51.20
-53.97
-55.78
-57.04
-58.10
-59.10
-59.78
-59.52
-57.33
-51.70
-40.62
-21.86
6.13
43.18
86.44
130.64
169.43
197.49
212.39
215.36
210.36
202.18
194.70
189.96
188.28
188.87
190.13
189.55
183.47
167.58
138.30
94.81
40.29
-18.34
-72.38
-114.26
-139.98
-149.91
-147.97
-139.55
-129.62
-121.49
-116.74
-115.56
-117.38
-121.19
-125.70
-129.60
-131.88
-132.19
-131.04
-129.56
-129.13
-130.72
-134.31
-138.21
-138.95
-131.88
-112.73
-79.67
-34.78
15.82
63.72
101.17
123.88
132.15
129.99
122.71
114.44
106.98
100.13
93.16
86.05
79.86
76.07
75.62
78.23
82.15
84.82
83.67
76.98
64.60
48.04
30.08
13.76
1.39
-6.26
-10.02
-11.58
-12.54
-13.63
-14.53
-14.43
-12.82
-9.98
-6.99
-5.06
-4.91
-6.36
-8.45
-9.99
-10.09
-8.73
-6.59
-4.75
-4.09
-4.90
-6.77
-8.87
-10.36
-10.84
-10.47
-9.81
-9.53
-10.02
-11.28
-12.99
-14.67
-15.98
-16.85
-17.46
-18.10
-19.02
-20.25
-21.63
-22.93
-23.95
-24.59
-24.86
-24.84
-24.53
-23.92
-22.93
-21.50
-19.62
-17.27
-14.47
-11.22
-7.60
-3.75
0.08
3.62
6.66
9.12
11.03
12.50
13.56
14.19
14.39
14.22
13.93
13.86
14.34
15.56
17.49
19.93
22.61
25.28
27.72
29.81
31.41
32.45
32.88
32.72
32.02
30.88
29.42
27.75
25.98
24.26
22.69
21.35
20.21
19.15
18.04
16.75
15.29
13.78
12.42
11.36
10.62
10.08
9.54
8.88
8.14
7.39
6.71
5.97
4.94
3.39
1.34
-0.87
-2.57
-3.04
-1.77
1.35
5.96
11.33
16.62
21.12
24.46
26.78
28.72
31.20
35.10
40.83
48.09
56.00
63.43
69.56
74.20
77.79
81.23
85.64
92.07
101.15
112.63
124.72
133.93
135.53
125.07
100.30
62.55
16.82
-29.74
-70.27
-100.30
-118.67
-126.94
-127.90
-124.14
-117.37
-108.56
-98.53
-88.30
-78.97
-71.35
-65.59
-61.16
-57.14
-52.76
-47.82
-42.76
-38.48
-35.85
-35.24
-36.33
-38.21
-39.72
-39.96
-38.63
-36.03
-32.92
-30.04
-27.87
-26.44
-25.40
-24.26
-22.64
-20.44
-17.83
-15.14
-12.72
-10.77
-9.32
-8.19
-7.15
-5.94
-4.39
-2.49
-0.43
1.48
2.91
3.59
3.50
2.76
1.65
0.45
-0.60
-1.36
-1.81
-1.96
-1.91
-1.78
-1.74
-1.89
-2.29
-2.87
-3.47
-3.92
-4.10
-4.02
-3.74
-3.34
-2.86
-2.28
-1.58
-0.76
0.17
1.18
2.27
3.49
4.84
6.20
7.32
7.86
7.55
6.35
4.47
2.35
0.43
-1.00
-1.86
-2.29
-2.51
-2.69
-2.95
-3.29
-3.69
-4.11
-4.50
-4.82
-5.02
-5.02
-4.78
-4.27
-3.47
-2.46
-1.32
-0.18
0.84
1.66
2.34
3.03
3.93
5.22
6.86
8.63
10.08
10.79
10.46
9.09
6.99
4.60
2.37
0.58
-0.72
-1.62
-2.31
-2.91
-3.49
-4.04
-4.56
-5.04
-5.50
-5.95
-6.39
-6.73
-6.87
-6.74
-6.34
-5.74
-5.05
-4.25
-3.23
-1.74
0.34
2.94
5.65
7.88
9.10
9.07
7.93
6.11
4.14
2.38
0.95
-0.24
-1.37
-2.55
-3.79
-5.03
-6.16
-7.10
-7.81
-8.20
-8.25
-7.91
-7.19
-6.16
-4.90
-3.51
-2.13
-0.88
0.11
0.77
1.10
1.19
1.14
1.03
0.82
0.36
-0.45
-1.67
-3.23
-5.04
-7.13
-9.62
-12.66
-16.17
-19.73
-22.65
-24.25
-24.28
-23.20
-22.07
-22.21
-24.45
-28.67
-33.71
-37.76
-39.21
-37.50
-33.51
-29.30
-27.23
-28.76
-33.71
-40.19
-45.34
-46.59
-42.82
-34.89
-25.17
-16.68
-11.82
-11.62
-15.61
-21.89
-27.33
-27.73
-18.47
3.90
39.39
82.84
124.24
151.69
156.18
135.62
95.98
48.76
5.93
-24.81
-41.96
-48.89
-50.48
-50.14
-49.00
-47.06
-45.04
-45.05
-49.48
-58.91
-70.46
-77.92
-73.47
-50.82
-7.82
52.33
121.65
189.67
246.26
284.03
299.56
293.25
267.96
227.44
175.36
115.20
50.89
-12.61
-69.50
-114.31
-143.49
-156.83
-157.41
-150.45
-141.41
-134.42
-131.60
-133.16
-137.98
-143.91
-147.90
-146.03
-133.95
-107.74
-65.12
-6.68
63.41
137.47
205.38
256.77
283.59
282.10
253.73
204.37
142.56
77.23
15.90
-36.19
-76.24
-103.42
-118.57
-123.73
-121.76
-115.77
-108.55
-102.29
-98.51
-98.18
-101.44
-107.31
-113.12
-114.46
-105.76
-81.74
-39.42
19.86
89.50
158.48
213.95
244.90
245.35
216.00
163.61
98.63
32.06
-27.20
-73.69
-105.56
-123.65
-130.38
-129.00
-122.93
-115.59
-109.98
-108.13
-110.58
-116.15
-122.36
-126.13
-124.89
-117.16
-102.45
-80.67
-51.45
-14.15
31.31
83.47
138.85
192.61
239.98
277.58
303.88
318.48
321.08
310.82
286.51
247.76
196.17
135.88
73.10
14.68
-33.64
-68.68
-90.29
-100.74
-103.51
-101.92
-98.17
-93.16
-87.02
-79.92
-72.57
-66.14
-61.68
-59.44
-58.71
-58.15
-56.51
-53.29
-48.85
-44.18
-40.33
-37.89
-36.76
-36.29
-35.65
-34.20
-31.82
-28.83
-25.87
-23.47
-21.82
-20.71
-19.69
-18.34
-16.46
-14.16
-11.71
-9.41
-7.48
-5.98
-4.86
-4.00
-3.25
-2.45
-1.42
-0.12
1.36
2.74
3.72
4.05
3.68
2.77
1.59
0.41
-0.58
-1.36
-1.97
-2.49
-2.99
-3.47
-3.90
-4.20
-4.35
-4.34
-4.25
-4.19
-4.23
-4.37
-4.47
-4.28
-3.60
-2.33
-0.55
1.49
3.47
5.14
6.40
7.29
7.95
8.45
8.71
8.58
7.86
6.48
4.60
2.53
0.67
-0.73
-1.59
-2.05
-2.34
-2.64
-3.02
-3.41
-3.74
-3.94
-4.03
-4.02
-3.93
-3.75
-3.45
-3.05
-2.60
-2.23
-2.00
-1.89
-1.72
-1.26
-0.28
1.25
3.10
4.80
5.81
5.76
4.62
2.74
0.69
-0.96
-1.88
-2.11
-1.94
-1.74
-1.74
-1.95
-2.23
-2.42
-2.43
-2.34
-2.23
-2.15
-2.02
-1.69
-1.00
0.06
1.34
2.55
3.44
3.89
3.98
3.97
4.12
4.57
5.25
5.93
6.31
6.17
5.46
4.30
2.93
1.61
0.54
-0.23
-0.74
-1.16
-1.61
-2.23
-3.04
-3.99
-4.98
-5.85
-6.44
-6.67
-6.55
-6.15
-5.61
-5.02
-4.42
-3.80
-3.15
-2.45
-1.72
-0.91
0.05
1.24
2.65
4.11
5.33
6.03
6.08
5.60
4.88
4.23
3.79
3.45
3.00
2.22
1.07
-0.29
-1.61
-2.69
-3.43
-3.87
-4.08
-4.13
-4.01
-3.66
-3.01
-2.06
-0.86
0.43
1.60
2.48
3.00
3.24
3.36
3.57
3.96
4.46
4.86
4.93
4.56
3.79
2.80
1.80
0.91
0.12
-0.65
-1.44
-2.21
-2.90
-3.42
-3.77
-4.00
-4.18
-4.32
-4.39
-4.35
-4.17
-3.91
-3.63
-3.36
-3.04
-2.59
-1.93
-1.08
-0.15
0.75
1.58
2.41
3.33
4.38
5.46
6.33
6.73
6.51
5.67
4.36
2.82
1.24
-0.23
-1.51
-2.55
-3.34
-3.85
-4.12
-4.18
-4.08
-3.91
-3.68
-3.44
-3.17
-2.80
-2.25
-1.43
-0.35
0.90
2.14
3.16
3.83
4.19
4.36
4.46
4.57
4.64
4.58
4.33
3.93
3.49
3.11
2.80
2.50
2.08
1.46
0.64
-0.31
-1.30
-2.26
-3.17
-4.01
-4.76
-5.34
-5.65
-5.62
-5.29
-4.80
-4.34
-4.08
-4.05
-4.15
-4.19
-4.03
-3.66
-3.11
-2.38
-1.39
0.00
1.87
4.08
6.23
7.80
8.39
7.92
6.66
5.11
3.69
2.57
1.66
0.72
-0.40
-1.71
-3.00
-4.00
-4.56
-4.62
-4.32
-3.82
-3.25
-2.66
-2.03
-1.28
-0.41
0.52
1.36
1.98
2.32
2.43
2.50
2.73
3.27
4.11
5.07
5.84
6.16
5.85
4.93
3.59
2.09
0.68
-0.46
-1.26
-1.77
-2.08
-2.31
-2.54
-2.78
-3.03
-3.25
-3.39
-3.45
-3.44
-3.41
-3.39
-3.36
-3.22
-2.85
-2.17
-1.19
-0.04
1.10
2.07
2.87
3.61
4.42
5.26
5.95
6.17
5.69
4.48
2.78
0.98
-0.60
-1.82
-2.74
-3.50
-4.24
-4.96
-5.57
-5.97
-6.12
-6.09
-6.02
-6.00
-6.03
-6.00
-5.72
-5.01
-3.79
-2.20
-0.49
1.06
2.26
3.14
3.87
4.68
5.66
6.69
7.50
7.80
7.49
6.64
5.51
4.41
3.54
2.99
2.74
2.67
2.67
2.64
2.43
1.95
1.15
0.04
-1.25
-2.56
-3.74
-4.68
-5.36
-5.78
-5.92
-5.73
-5.13
-4.14
-2.88
-1.54
-0.30
0.77
1.79
2.94
4.25
5.56
6.47
6.62
5.84
4.32
2.51
0.89
-0.26
-0.99
-1.52
-2.10
-2.83
-3.62
-4.31
-4.78
-5.00
-4.99
-4.79
-4.42
-3.83
-3.04
-2.09
-1.08
-0.13
0.65
1.18
1.44
1.51
1.55
1.73
2.21
2.97
3.87
4.65
5.07
4.97
4.37
3.42
2.29
1.16
0.13
-0.75
-1.44
-1.96
-2.31
-2.53
-2.68
-2.81
-2.90
-2.93
-2.91
-2.84
-2.73
-2.59
-2.40
-2.15
-1.87
-1.67
-1.69
-1.99
-2.52
-3.09
-3.51
-3.68
-3.65
-3.65
-3.89
-4.50
-5.41
-6.43
-7.37
-8.12
-8.68
-9.12
-9.51
-9.83
-10.00
-9.91
-9.47
-8.67
-7.58
-6.29
-4.94
-3.55
-2.09
-0.45
1.52
3.90
6.65
9.56
12.26
14.39
15.65
15.95
15.40
14.23
12.74
11.15
9.55
7.96
6.35
4.78
3.32
2.12
1.29
0.87
0.81
0.91
0.96
0.74
0.14
-0.79
-1.87
-2.85
-3.52
-3.82
-3.81
-3.65
-3.49
-3.45
-3.56
-3.80
-4.13
-4.45
-4.68
-4.75
-4.70
-4.67
-4.91
-5.67
-7.01
-8.79
-10.65
-12.23
-13.37
-14.19
-15.04
-16.29
-18.04
-20.10
-22.05
-23.55
-24.55
-25.32
-26.29
-27.81
-29.89
-32.27
-34.53
-36.37
-37.70
-38.59
-39.16
-39.51
-39.69
-39.80
-39.97
-40.17
-40.02
-38.61
-34.74
-27.34
-16.02
-1.46
14.63
30.03
42.71
51.43
56.02
57.21
56.17
54.04
51.57
49.13
46.82
44.71
42.90
41.47
40.38
39.39
38.16
36.41
34.06
31.32
28.55
26.14
24.26
22.90
21.85
20.87
19.72
18.25
16.40
14.21
11.88
9.72
8.05
7.02
6.52
6.21
5.59
4.30
2.24
-0.36
-3.06
-5.43
-7.20
-8.30
-8.81
-8.88
-8.56
-7.89
-6.86
-5.51
-3.92
-2.24
-0.57
0.96
2.29
3.35
4.10
4.52
4.66
4.60
4.38
4.03
3.60
3.12
2.73
2.60
2.82
3.35
3.93
4.19
3.77
2.50
0.43
-2.17
-4.99
-7.66
-9.89
-11.41
-12.04
-11.74
-10.64
-9.08
-7.49
-6.22
-5.40
-4.89
-4.40
-3.61
-2.34
-0.67
1.19
2.93
4.34
5.39
6.16
6.77
7.26
7.53
7.34
6.46
4.78
2.44
-0.21
-2.71
-4.68
-5.94
-6.52
-6.59
-6.35
-5.93
-5.33
-4.55
-3.56
-2.41
-1.18
0.00
1.05
1.90
2.53
2.93
3.13
3.15
3.06
2.96
2.93
3.07
3.42
3.92
4.48
4.96
5.27
5.41
5.44
5.50
5.67
5.91
6.08
5.93
5.23
3.95
2.25
0.45
-1.04
-1.94
-2.12
-1.67
-0.79
0.28
1.39
2.54
3.86
5.49
7.53
9.92
12.41
14.71
16.59
17.94
18.84
19.49
20.08
20.74
21.56
22.59
23.74
24.60
24.43
22.26
17.36
9.69
0.14
-9.70
-18.15
-24.07
-27.28
-28.41
-28.42
-27.99
-27.35
-26.35
-24.84
-22.91
-20.93
-19.28
-18.13
-17.30
-16.47
-15.37
-13.94
-12.38
-10.98
-9.96
-9.31
-8.86
-8.35
-7.60
-6.58
-5.41
-4.37
-3.72
-3.61
-4.03
-4.76
-5.46
-5.76
-5.41
-4.35
-2.70
-0.67
1.51
3.62
5.48
6.90
7.76
7.97
7.58
6.76
5.78
4.90
4.32
4.14
4.32
4.72
5.15
5.39
5.33
4.92
4.26
3.54
2.95
2.64
2.66
2.95
3.40
3.86
4.19
4.34
4.34
4.35
4.63
5.42
6.86
8.84
11.04
13.04
14.53
15.45
16.09
16.87
18.19
20.18
22.63
25.13
27.22
28.70
29.67
30.49
31.62
33.44
36.16
39.76
43.87
47.62
49.54
47.79
40.82
28.08
10.66
-8.87
-27.21
-41.51
-50.39
-54.17
-54.31
-52.50
-49.82
-46.53
-42.43
-37.39
-31.66
-25.87
-20.64
-16.28
-12.72
-9.69
-7.03
-4.87
-3.60
-3.71
-5.37
-8.32
-11.87
-15.06
-17.08
-17.54
-16.55
-14.71
-12.80
-11.49
-11.07
-11.44
-12.19
-12.81
-12.92
-12.36
-11.22
-9.70
-8.06
-6.46
-5.02
-3.83
-2.92
-2.28
-1.78
-1.20
-0.26
1.20
3.11
5.10
6.68
7.37
6.97
5.63
3.81
2.05
0.80
0.23
0.25
0.59
0.92
1.00
0.72
0.12
-0.67
-1.49
-2.22
-2.84
-3.39
-3.95
-4.52
-5.03
-5.31
-5.23
-4.69
-3.72
-2.37
-0.69
1.29
3.54
5.89
8.02
9.47
9.82
8.90
6.88
4.29
1.74
-0.23
-1.42
-1.93
-2.03
-2.03
-2.12
-2.29
-2.49
-2.65
-2.80
-2.99
-3.27
-3.57
-3.75
-3.64
-3.15
-2.33
-1.36
-0.42
0.38
1.08
1.82
2.75
3.89
5.11
6.16
6.77
6.82
6.33
5.45
4.40
3.35
2.37
1.43
0.47
-0.57
-1.71
-2.91
-4.08
-5.09
-5.84
-6.24
-6.28
-6.02
-5.56
-5.02
-4.46
-3.96
-3.55
-3.23
-3.02
-2.80
-2.42
-1.68
-0.44
1.23
3.03
4.53
5.33
5.25
4.39
3.11
1.79
0.70
-0.14
-0.86
-1.65
-2.66
-3.83
-5.00
-5.98
-6.59
-6.79
-6.61
-6.18
-5.59
-4.92
-4.17
-3.29
-2.20
-0.86
0.76
2.64
4.72
6.96
9.25
11.40
13.12
14.11
14.10
13.03
11.08
8.58
5.97
3.59
1.64
0.13
-0.99
-1.84
-2.52
-3.09
-3.58
-4.03
-4.48
-4.97
-5.52
-6.15
-6.79
-7.31
-7.54
-7.31
-6.55
-5.27
-3.58
-1.62
0.47
2.58
4.54
6.14
7.10
7.16
6.26
4.54
2.39
0.27
-1.46
-2.65
-3.35
-3.78
-4.13
-4.52
-4.98
-5.47
-5.91
-6.20
-6.26
-6.00
-5.40
-4.49
-3.37
-2.16
-0.96
0.18
1.22
2.19
3.12
4.07
5.13
6.27
7.40
8.26
8.59
8.19
7.06
5.38
3.47
1.61
-0.05
-1.42
-2.48
-3.22
-3.63
-3.77
-3.77
-3.77
-3.86
-4.02
-4.12
-4.01
-3.64
-3.00
-2.15
-1.12
0.10
1.47
2.92
4.33
5.56
6.57
7.38
8.01
8.37
8.27
7.46
5.86
3.62
1.16
-1.03
-2.58
-3.38
-3.58
-3.45
-3.25
-3.11
-3.07
-3.08
-3.12
-3.17
-3.21
-3.22
-3.16
-3.00
-2.70
-2.25
-1.63
-0.86
-0.01
0.81
1.50
2.03
2.43
2.76
3.08
3.37
3.53
3.43
3.02
2.30
1.38
0.39
-0.56
-1.43
-2.18
-2.79
-3.24
-3.49
-3.52
-3.33
-2.97
-2.53
-2.08
-1.66
-1.27
-0.86
-0.38
0.19
0.77
1.26
1.58
1.76
1.90
2.14
2.55
3.06
3.50
3.65
3.40
2.80
2.00
1.22
0.58
0.09
-0.33
-0.81
-1.40
-2.06
-2.73
-3.31
-3.76
-4.14
-4.54
-5.01
-5.50
-5.77
-5.52
-4.45
-2.53
-0.04
2.49
4.42
5.27
4.92
3.61
1.87
0.26
-0.84
-1.32
-1.35
-1.23
-1.22
-1.47
-1.92
-2.40
-2.74
-2.80
-2.60
-2.19
-1.67
-1.08
-0.37
0.53
1.67
3.00
4.36
5.51
6.19
6.23
5.61
4.48
3.12
1.81
0.68
-0.28
-1.26
-2.43
-3.83
-5.29
-6.44
-6.90
-6.50
-5.32
-3.74
-2.18
-0.99
-0.26
0.17
0.63
1.43
2.72
4.43
6.26
7.82
8.72
8.70
7.76
6.11
4.12
2.17
0.54
-0.69
-1.59
-2.31
-2.95
-3.47
-3.76
-3.66
-3.02
-1.87
-0.37
1.17
2.40
2.98
2.75
1.77
0.37
-0.93
-1.59
-1.23
0.21
2.40
4.72
6.50
7.20
6.64
5.03
2.83
0.60
-1.25
-2.53
-3.32
-3.86
-4.37
-4.95
-5.55
-6.00
-6.16
-5.91
-5.28
-4.31
-3.07
-1.64
-0.16
1.17
2.08
2.34
1.85
0.75
-0.60
-1.75
-2.30
-2.06
-1.04
0.55
2.47
4.47
6.36
7.92
8.97
9.28
8.71
7.25
5.12
2.69
0.40
-1.39
-2.46
-2.84
-2.68
-2.19
-1.55
-0.89
-0.36
-0.09
-0.24
-0.90
-2.02
-3.36
-4.57
-5.31
-5.42
-4.97
-4.18
-3.24
-2.24
-1.14
0.09
1.30
2.22
2.50
1.94
0.64
-0.99
-2.42
-3.28
-3.45
-3.15
-2.73
-2.50
-2.54
-2.71
-2.79
-2.60
-2.14
-1.62
-1.26
-1.20
-1.32
-1.34
-0.94
0.03
1.48
3.07
4.43
5.32
5.69
5.71
5.55
5.32
5.04
4.65
4.14
3.57
3.03
2.58
2.22
1.90
1.57
1.18
0.70
0.14
-0.49
-1.18
-1.90
-2.56
-3.06
-3.30
-3.25
-3.01
-2.75
-2.68
-2.94
-3.51
-4.23
-4.85
-5.09
-4.76
-3.85
-2.51
-1.02
0.29
1.19
1.57
1.45
1.03
0.58
0.39
0.68
1.49
2.70
4.00
5.04
5.53
5.36
4.61
3.48
2.19
0.89
-0.38
-1.65
-2.91
-4.11
-5.16
-6.01
-6.64
-7.09
-7.33
-7.28
-6.71
-5.42
-3.29
-0.39
2.97
6.30
9.06
10.79
11.24
10.40
8.50
5.98
3.31
0.87
-1.12
-2.67
-3.87
-4.85
-5.68
-6.33
-6.75
-6.86
-6.61
-6.01
-5.03
-3.62
-1.77
0.52
3.14
5.89
8.48
10.58
11.85
12.02
10.98
8.84
5.98
2.94
0.30
-1.55
-2.51
-2.77
-2.71
-2.70
-2.97
-3.58
-4.40
-5.23
-5.85
-6.10
-5.82
-5.00
-3.75
-2.29
-0.91
0.14
0.69
0.74
0.28
-0.67
-2.09
-3.92
-5.96
-7.86
-9.12
-9.31
-8.18
-5.80
-2.52
1.18
4.79
7.90
10.26
11.75
12.36
12.19
11.41
10.21
8.76
7.22
5.68
4.25
3.06
2.21
1.78
1.71
1.75
1.58
0.84
-0.61
-2.67
-4.96
-6.89
-7.82
-7.20
-4.79
-0.75
4.26
9.22
12.97
14.61
13.72
10.60
6.04
1.11
-3.28
-6.57
-8.62
-9.56
-9.64
-9.14
-8.29
-7.34
-6.57
-6.21
-6.40
-7.08
-8.01
-8.82
-9.16
-8.79
-7.72
-6.20
-4.60
-3.26
-2.39
-1.97
-1.84
-1.78
-1.60
-1.25
-0.77
-0.23
0.32
0.88
1.50
2.21
2.98
3.71
4.27
4.58
4.63
4.51
4.30
4.11
3.94
3.73
3.39
2.89
2.27
1.69
1.34
1.36
1.77
2.46
3.24
3.88
4.20
4.12
3.65
2.88
1.91
0.86
-0.20
-1.26
-2.30
-3.36
-4.43
-5.48
-6.49
-7.45
-8.36
-9.24
-10.07
-10.80
-11.37
-11.69
-11.75
-11.61
-11.39
-11.18
-10.94
-10.49
-9.52
-7.74
-4.96
-1.26
2.99
7.27
10.97
13.64
15.07
15.34
14.71
13.56
12.23
10.97
9.89
8.97
8.20
7.52
6.92
6.39
5.88
5.34
4.70
3.92
3.06
2.20
1.48
0.97
0.69
0.59
0.62
0.71
0.83
0.98
1.14
1.31
1.47
1.59
1.65
1.66
1.65
1.68
1.84
2.17
2.60
2.99
3.16
3.00
2.55
2.04
1.79
2.09
3.05
4.58
6.45
8.39
10.18
11.64
12.66
13.10
12.85
11.81
9.99
7.46
4.41
1.06
-2.35
-5.62
-8.55
-10.97
-12.70
-13.59
-13.52
-12.53
-10.78
-8.59
-6.35
-4.39
-2.93
-2.05
-1.70
-1.78
-2.20
-2.89
-3.75
-4.62
-5.34
-5.75
-5.77
-5.46
-4.98
-4.51
-4.19
-4.10
-4.23
-4.56
-5.06
-5.68
-6.31
-6.73
-6.69
-5.95
-4.42
-2.23
0.29
2.70
4.64
5.89
6.39
6.17
5.30
3.88
2.12
0.32
-1.16
-2.04
-2.25
-1.96
-1.54
-1.33
-1.52
-2.07
-2.78
-3.42
-3.83
-3.92
-3.62
-2.88
-1.68
-0.09
1.68
3.34
4.61
5.41
5.82
6.07
6.32
6.56
6.59
6.14
5.08
3.50
1.71
0.12
-1.02
-1.65
-1.96
-2.21
-2.65
-3.36
-4.30
-5.37
-6.44
-7.43
-8.19
-8.49
-8.07
-6.65
-4.10
-0.59
3.45
7.36
10.50
12.38
12.79
11.84
9.87
7.35
4.79
2.58
0.93
-0.15
-0.80
-1.26
-1.72
-2.29
-2.97
-3.67
-4.31
-4.82
-5.17
-5.30
-5.10
-4.48
-3.37
-1.86
-0.13
1.51
2.78
3.55
3.83
3.82
3.75
3.77
3.85
3.78
3.32
2.28
0.70
-1.20
-3.04
-4.51
-5.42
-5.77
-5.71
-5.46
-5.23
-5.15
-5.23
-5.35
-5.26
-4.66
-3.27
-0.97
2.07
5.38
8.28
10.12
10.47
9.35
7.14
4.43
1.79
-0.47
-2.33
-3.91
-5.32
-6.51
-7.30
-7.53
-7.23
-6.64
-6.12
-6.01
-6.41
-7.18
-8.00
-8.50
-8.33
-7.26
-5.14
-1.98
2.02
6.46
10.74
14.22
16.38
16.98
16.10
14.14
11.62
9.09
6.97
5.48
4.65
4.31
4.23
4.15
3.91
3.40
2.62
1.60
0.43
-0.82
-2.03
-3.08
-3.86
-4.33
-4.55
-4.68
-4.85
-5.17
-5.56
-5.83
-5.74
-5.06
-3.72
-1.83
0.34
2.45
4.19
5.34
5.84
5.74
5.20
4.36
3.33
2.17
0.91
-0.37
-1.55
-2.46
-3.01
-3.19
-3.13
-3.04
-3.09
-3.38
-3.84
-4.33
-4.70
-4.83
-4.70
-4.35
-3.86
-3.32
-2.75
-2.15
-1.48
-0.66
0.39
1.69
3.14
4.53
5.60
6.13
6.00
5.30
4.21
2.92
1.61
0.33
-0.89
-2.06
-3.13
-4.04
-4.72
-5.15
-5.30
-5.20
-4.90
-4.44
-3.90
-3.29
-2.59
-1.77
-0.81
0.25
1.31
2.26
3.04
3.70
4.31
4.91
5.44
5.73
5.62
5.00
3.95
2.66
1.38
0.30
-0.53
-1.17
-1.73
-2.34
-3.04
-3.75
-4.32
-4.57
-4.40
-3.85
-3.09
-2.32
-1.70
-1.25
-0.84
-0.30
0.47
1.43
2.46
3.38
4.08
4.50
4.68
4.65
4.41
3.93
3.21
2.26
1.12
-0.09
-1.29
-2.36
-3.24
-3.89
-4.32
-4.54
-4.55
-4.35
-3.95
-3.38
-2.70
-2.01
-1.38
-0.81
-0.17
0.66
1.76
3.05
4.30
5.19
5.44
4.98
3.92
2.49
0.97
-0.47
-1.75
-2.84
-3.75
-4.47
-4.98
-5.31
-5.46
-5.47
-5.30
-4.87
-4.06
-2.79
-1.10
0.88
2.90
4.70
6.04
6.78
6.88
6.39
5.42
4.09
2.59
1.06
-0.37
-1.62
-2.70
-3.63
-4.38
-4.85
-4.79
-3.98
-2.28
0.17
3.01
5.70
7.74
8.74
8.61
7.45
5.56
3.28
0.99
-1.00
-2.44
-3.23
-3.43
-3.21
-2.81
-2.49
-2.41
-2.63
-3.08
-3.59
-3.91
-3.84
-3.27
-2.29
-1.12
-0.03
0.78
1.26
1.46
1.52
1.55
1.57
1.58
1.56
1.52
1.47
1.43
1.35
1.15
0.74
0.08
-0.78
-1.73
-2.60
-3.26
-3.61
-3.69
-3.61
-3.56
-3.70
-4.06
-4.50
-4.73
-4.44
-3.44
-1.74
0.46
2.80
4.93
6.57
7.54
7.75
7.22
6.04
4.42
2.66
1.13
0.11
-0.28
-0.16
0.18
0.43
0.37
-0.03
-0.64
-1.27
-1.73
-1.95
-1.93
-1.72
-1.33
-0.77
-0.04
0.79
1.56
2.10
2.28
2.10
1.69
1.25
0.91
0.70
0.56
0.36
0.07
-0.30
-0.67
-0.99
-1.23
-1.43
-1.64
-1.89
-2.15
-2.40
-2.58
-2.66
-2.61
-2.41
-2.07
-1.63
-1.15
-0.71
-0.38
-0.15
-0.01
0.13
0.37
0.78
1.40
2.23
3.16
4.07
4.76
5.07
4.88
4.20
3.14
1.90
0.65
-0.49
-1.47
-2.32
-3.10
-3.83
-4.48
-4.99
-5.33
-5.48
-5.47
-5.35
-5.15
-4.87
-4.46
-3.89
-3.13
-2.25
-1.37
-0.60
-0.04
0.33
0.59
0.87
1.29
1.90
2.70
3.64
4.65
5.63
6.46
6.97
7.00
6.46
5.38
3.96
2.52
1.35
0.65
0.42
0.52
0.69
0.70
0.44
-0.08
-0.72
-1.32
-1.76
-1.98
-2.04
-1.99
-1.88
-1.69
-1.37
-0.88
-0.19
0.68
1.67
2.67
3.58
4.29
4.69
4.74
4.42
3.75
2.82
1.70
0.46
-0.83
-2.12
-3.30
-4.28
-4.96
-5.27
-5.27
-5.05
-4.76
-4.48
-4.23
-3.94
-3.51
-2.89
-2.14
-1.33
-0.56
0.09
0.61
0.99
1.24
1.38
1.44
1.50
1.67
2.01
2.51
3.08
3.55
3.73
3.52
2.91
2.01
0.98
0.02
-0.72
-1.15
-1.26
-1.15
-0.94
-0.76
-0.72
-0.85
-1.10
-1.38
-1.61
-1.74
-1.81
-1.84
-1.88
-1.95
-1.97
-1.89
-1.63
-1.18
-0.54
0.27
1.22
2.24
3.23
3.98
4.34
4.19
3.60
2.73
1.82
1.01
0.33
-0.27
-0.90
-1.54
-2.12
-2.50
-2.56
-2.27
-1.70
-0.98
-0.26
0.34
0.73
0.89
0.86
0.72
0.60
0.59
0.71
0.94
1.21
1.51
1.83
2.20
2.59
2.91
3.02
2.79
2.19
1.27
0.22
-0.80
-1.66
-2.35
-2.87
-3.28
-3.59
-3.80
-3.90
-3.89
-3.79
-3.61
-3.36
-3.05
-2.69
-2.34
-2.05
-1.87
-1.79
-1.80
-1.80
-1.68
-1.27
-0.44
0.86
2.52
4.27
5.73
6.53
6.47
5.63
4.35
3.04
2.04
1.45
1.16
0.93
0.59
0.10
-0.45
-0.95
-1.30
-1.48
-1.49
-1.32
-1.00
-0.58
-0.15
0.17
0.31
0.29
0.18
0.10
0.08
0.14
0.24
0.35
0.51
0.76
1.07
1.33
1.39
1.13
0.55
-0.23
-1.02
-1.66
-2.08
-2.33
-2.51
-2.70
-2.87
-2.94
-2.81
-2.46
-1.97
-1.51
-1.21
-1.10
-1.10
-1.11
-1.05
-0.94
-0.89
-0.94
-1.04
-1.02
-0.69
0.06
1.11
2.22
3.13
3.65
3.77
3.58
3.22
2.75
2.16
1.47
0.71
-0.00
-0.55
-0.89
-1.05
-1.15
-1.30
-1.53
-1.80
-2.02
-2.12
-2.08
-1.94
-1.69
-1.31
-0.76
-0.03
0.82
1.70
2.50
3.17
3.72
4.21
4.68
5.10
5.35
5.28
4.74
3.75
2.41
0.95
-0.42
-1.54
-2.36
-2.93
-3.33
-3.63
-3.88
-4.07
-4.20
-4.26
-4.35
-4.52
-4.80
-5.08
-5.13
-4.73
-3.72
-2.16
-0.28
1.63
3.34
4.75
5.88
6.73
7.23
7.23
6.60
5.39
3.78
2.09
0.59
-0.57
-1.42
-2.05
-2.52
-2.84
-3.01
-3.04
-2.95
-2.81
-2.67
-2.56
-2.47
-2.36
-2.13
-1.67
-0.91
0.12
1.30
2.42
3.33
3.97
4.41
4.73
4.94
4.92
4.50
3.58
2.21
0.66
-0.73
-1.66
-2.03
-1.92
-1.61
-1.39
-1.48
-1.92
-2.59
-3.29
-3.82
-4.10
-4.16
-4.12
-4.05
-3.98
-3.79
-3.37
-2.63
-1.53
-0.07
1.72
3.74
5.77
7.48
8.52
8.60
7.69
6.06
4.15
2.41
1.10
0.23
-0.38
-0.97
-1.65
-2.41
-3.11
-3.58
-3.77
-3.72
-3.59
-3.50
-3.49
-3.48
-3.29
-2.71
-1.68
-0.28
1.26
2.66
3.68
4.23
4.37
4.26
4.03
3.74
3.35
2.79
2.03
1.10
0.10
-0.87
-1.73
-2.49
-3.17
-3.77
-4.23
-4.46
-4.37
-3.95
-3.29
-2.57
-1.95
-1.55
-1.40
-1.38
-1.37
-1.22
-0.81
-0.08
0.97
2.26
3.64
4.92
5.89
6.33
6.14
5.30
3.93
2.26
0.56
-0.92
-2.04
-2.75
-3.14
-3.35
-3.48
-3.58
-3.58
-3.35
-2.82
-2.01
-1.08
-0.22
0.41
0.78
0.99
1.18
1.48
1.90
2.36
2.77
3.08
3.26
3.29
3.14
2.74
2.07
1.20
0.26
-0.54
-1.09
-1.38
-1.54
-1.75
-2.17
-2.81
-3.57
-4.24
-4.63
-4.64
-4.26
-3.59
-2.78
-1.92
-1.07
-0.22
0.64
1.46
2.18
2.76
3.21
3.63
4.12
4.71
5.27
5.55
5.29
4.40
2.98
1.33
-0.22
-1.41
-2.21
-2.72
-3.09
-3.41
-3.68
-3.81
-3.72
-3.37
-2.85
-2.28
-1.81
-1.47
-1.23
-0.96
-0.52
0.15
0.97
1.79
2.43
2.80
2.94
2.99
3.12
3.43
3.83
4.12
4.05
3.45
2.32
0.85
-0.67
-1.98
-2.92
-3.49
-3.78
-3.92
-3.97
-3.93
-3.74
-3.38
-2.91
-2.46
-2.18
-2.10
-2.13
-2.09
-1.78
-1.14
-0.28
0.67
1.58
2.44
3.33
4.29
5.20
5.81
5.84
5.14
3.80
2.12
0.52
-0.72
-1.46
-1.78
-1.83
-1.78
-1.74
-1.75
-1.80
-1.88
-1.96
-2.04
-2.10
-2.11
-2.02
-1.78
-1.33
-0.67
0.12
0.92
1.59
2.07
2.40
2.74
3.23
3.87
4.47
4.70
4.30
3.20
1.61
-0.09
-1.48
-2.35
-2.72
-2.78
-2.78
-2.86
-3.07
-3.32
-3.54
-3.64
-3.61
-3.44
-3.20
-2.91
-2.61
-2.24
-1.73
-0.97
0.11
1.50
3.07
4.64
5.96
6.84
7.13
6.77
5.83
4.50
3.02
1.63
0.50
-0.34
-0.97
-1.51
-2.06
-2.68
-3.33
-3.92
-4.32
-4.42
-4.17
-3.56
-2.70
-1.74
-0.84
-0.08
0.53
1.09
1.65
2.22
2.73
3.06
3.16
3.05
2.83
2.59
2.36
2.11
1.73
1.15
0.39
-0.45
-1.24
-1.85
-2.28
-2.59
-2.89
-3.23
-3.58
-3.82
-3.79
-3.44
-2.82
-2.13
-1.58
-1.29
-1.23
-1.25
-1.11
-0.68
0.06
1.03
2.07
3.04
3.86
4.50
4.95
5.16
5.05
4.54
3.60
2.33
0.91
-0.41
-1.43
-2.06
-2.35
-2.45
-2.52
-2.68
-2.94
-3.21
-3.38
-3.32
-2.96
-2.28
-1.30
-0.11
1.17
2.37
3.34
3.94
4.17
4.11
3.89
3.68
3.56
3.50
3.39
3.08
2.48
1.60
0.54
-0.56
-1.56
-2.39
-3.05
-3.58
-4.00
-4.31
-4.47
-4.45
-4.25
-3.94
-3.65
-3.48
-3.48
-3.56
-3.55
-3.25
-2.57
-1.53
-0.28
1.03
2.31
3.56
4.78
5.90
6.71
6.99
6.57
5.52
4.09
2.62
1.38
0.40
-0.42
-1.24
-2.12
-2.98
-3.65
-4.02
-4.05
-3.83
-3.45
-2.99
-2.44
-1.78
-1.01
-0.20
0.59
1.23
1.69
1.94
2.03
2.02
1.99
2.03
2.19
2.50
2.87
3.17
3.20
2.83
2.04
0.94
-0.27
-1.37
-2.20
-2.72
-3.02
-3.23
-3.43
-3.63
-3.77
-3.76
-3.59
-3.29
-2.93
-2.59
-2.23
-1.76
-1.09
-0.17
0.92
2.06
3.12
4.04
4.87
5.66
6.42
7.00
7.20
6.83
5.83
4.34
2.59
0.87
-0.62
-1.83
-2.78
-3.53
-4.09
-4.43
-4.51
-4.34
-4.00
-3.60
-3.27
-3.00
-2.73
-2.30
-1.61
-0.68
0.34
1.25
1.90
2.24
2.36
2.45
2.64
2.98
3.41
3.76
3.85
3.52
2.72
1.50
0.04
-1.39
-2.52
-3.19
-3.38
-3.26
-3.04
-2.89
-2.84
-2.85
-2.81
-2.71
-2.56
-2.42
-2.31
-2.16
-1.88
-1.38
-0.65
0.28
1.37
2.59
3.87
5.12
6.18
6.78
6.74
5.98
4.61
2.89
1.12
-0.47
-1.74
-2.68
-3.33
-3.72
-3.91
-3.95
-3.86
-3.69
-3.45
-3.15
-2.78
-2.32
-1.78
-1.13
-0.38
0.48
1.39
2.21
2.78
3.01
2.95
2.77
2.72
2.94
3.35
3.70
3.66
3.02
1.79
0.18
-1.47
-2.87
-3.80
-4.19
-4.07
-3.56
-2.84
-2.17
-1.75
-1.67
-1.89
-2.19
-2.34
-2.17
-1.68
-0.98
-0.25
0.39
0.92
1.37
1.84
2.36
2.98
3.66
4.35
4.96
5.34
5.32
4.75
3.66
2.24
0.79
-0.38
-1.12
-1.51
-1.77
-2.15
-2.74
-3.47
-4.13
-4.49
-4.43
-4.02
-3.38
-2.70
-2.05
-1.42
-0.73
0.07
0.93
1.73
2.33
2.64
2.67
2.55
2.44
2.46
2.65
2.91
3.11
3.07
2.72
2.04
1.13
0.10
-0.90
-1.73
-2.29
-2.57
-2.62
-2.54
-2.48
-2.52
-2.68
-2.91
-3.11
-3.21
-3.16
-3.01
-2.76
-2.39
-1.85
-1.12
-0.21
0.76
1.66
2.43
3.05
3.57
3.99
4.25
4.24
3.86
3.14
2.22
1.31
0.54
-0.06
-0.58
-1.11
-1.70
-2.29
-2.79
-3.12
-3.26
-3.20
-2.98
-2.61
-2.09
-1.43
-0.70
0.03
0.67
1.21
1.66
2.08
2.53
3.01
3.48
3.91
4.24
4.46
4.54
4.40
3.92
3.01
1.68
0.08
-1.53
-2.85
-3.68
-3.98
-3.89
-3.63
-3.40
-3.29
-3.23
-3.14
-2.92
-2.57
-2.16
-1.84
-1.68
-1.67
-1.68
-1.55
-1.13
-0.34
0.72
1.92
3.06
4.01
4.68
5.01
4.97
4.56
3.82
2.87
1.87
0.96
0.19
-0.47
-1.11
-1.80
-2.52
-3.17
-3.63
-3.83
-3.80
-3.65
-3.44
-3.15
-2.63
-1.77
-0.53
0.93
2.34
3.45
4.13
4.44
4.53
4.58
4.66
4.71
4.60
4.21
3.48
2.48
1.33
0.18
-0.84
-1.65
-2.21
-2.54
-2.70
-2.77
-2.84
-2.98
-3.23
-3.59
-3.97
-4.29
-4.42
-4.31
-3.96
-3.42
-2.78
-2.10
-1.40
-0.63
0.30
1.44
2.79
4.23
5.52
6.39
6.61
6.11
5.02
3.61
2.17
0.91
-0.12
-0.95
-1.67
-2.28
-2.73
-2.97
-3.01
-2.91
-2.78
-2.62
-2.40
-1.99
-1.31
-0.39
0.63
1.57
2.25
2.60
2.66
2.54
2.37
2.22
2.14
2.08
1.98
1.78
1.43
0.95
0.39
-0.18
-0.74
-1.29
-1.84
-2.42
-3.00
-3.52
-3.91
-4.05
-3.92
-3.48
-2.83
-2.05
-1.30
-0.67
-0.22
0.06
0.23
0.36
0.57
1.00
1.73
2.77
3.96
5.01
5.60
5.47
4.59
3.19
1.64
0.34
-0.51
-0.92
-1.10
-1.33
-1.78
-2.48
-3.30
-4.05
-4.58
-4.83
-4.82
-4.58
-4.10
-3.34
-2.27
-0.91
0.60
2.05
3.20
3.91
4.17
4.14
4.04
4.06
4.26
4.51
4.57
4.23
3.41
2.20
0.83
-0.45
-1.43
-2.09
-2.51
-2.83
-3.20
-3.66
-4.15
-4.53
-4.65
-4.39
-3.74
-2.81
-1.81
-0.96
-0.39
-0.09
0.06
0.22
0.53
1.04
1.73
2.58
3.55
4.60
5.60
6.32
6.50
5.97
4.74
3.07
1.35
-0.10
-1.15
-1.89
-2.53
-3.20
-3.92
-4.55
-4.94
-5.04
-4.89
-4.60
-4.21
-3.69
-2.96
-1.98
-0.79
0.44
1.52
2.29
2.69
2.79
2.75
2.75
2.93
3.33
3.89
4.41
4.64
4.39
3.59
2.34
0.92
-0.40
-1.38
-1.99
-2.33
-2.57
-2.88
-3.28
-3.69
-3.96
-4.00
-3.79
-3.41
-3.03
-2.75
-2.59
-2.46
-2.25
-1.85
-1.25
-0.47
0.42
1.37
2.40
3.51
4.64
5.65
6.34
6.49
6.03
5.02
3.70
2.32
1.11
0.14
-0.62
-1.28
-1.97
-2.72
-3.52
-4.25
-4.77
-4.95
-4.71
-4.08
-3.18
-2.17
-1.17
-0.25
0.63
1.52
2.39
3.15
3.64
3.76
3.54
3.19
2.94
2.97
3.23
3.50
3.48
2.94
1.85
0.42
-1.02
-2.16
-2.83
-3.08
-3.08
-3.05
-3.13
-3.33
-3.51
-3.50
-3.19
-2.59
-1.88
-1.27
-0.92
-0.83
-0.90
-0.97
-0.93
-0.76
-0.49
-0.13
0.42
1.29
2.53
4.01
5.41
6.33
6.48
5.79
4.46
2.84
1.23
-0.17
-1.35
-2.33
-3.12
-3.70
-3.99
-3.99
-3.78
-3.48
-3.22
-3.06
-2.98
-2.90
-2.71
-2.30
-1.60
-0.58
0.67
1.97
3.07
3.79
4.11
4.17
4.21
4.38
4.67
4.90
4.81
4.24
3.21
1.94
0.70
-0.30
-1.00
-1.45
-1.77
-2.05
-2.36
-2.69
-3.02
-3.32
-3.55
-3.68
-3.70
-3.67
-3.66
-3.71
-3.80
-3.86
-3.77
-3.40
-2.66
-1.52
0.02
1.87
3.91
5.91
7.57
8.54
8.56
7.56
5.76
3.59
1.55
0.03
-0.85
-1.26
-1.51
-1.87
-2.48
-3.24
-3.97
-4.45
-4.59
-4.45
-4.12
-3.73
-3.31
-2.78
-2.00
-0.92
0.40
1.76
2.94
3.77
4.22
4.42
4.53
4.64
4.72
4.63
4.21
3.39
2.21
0.85
-0.44
-1.47
-2.11
-2.37
-2.38
-2.36
-2.47
-2.83
-3.36
-3.92
-4.38
-4.66
-4.84
-5.02
-5.27
-5.56
-5.71
-5.55
-4.96
-3.92
-2.49
-0.78
1.13
3.16
5.19
7.04
8.47
9.25
9.22
8.46
7.18
5.69
4.27
3.07
2.10
1.30
0.57
-0.15
-0.83
-1.43
-1.92
-2.26
-2.51
-2.74
-3.01
-3.31
-3.52
-3.41
-2.82
-1.72
-0.27
1.20
2.38
3.09
3.38
3.43
3.46
3.52
3.53
3.32
2.79
1.96
0.97
0.02
-0.76
-1.33
-1.68
-1.88
-1.99
-2.08
-2.21
-2.44
-2.79
-3.20
-3.63
-4.05
-4.48
-4.97
-5.55
-6.10
-6.39
-6.13
-5.08
-3.20
-0.65
2.25
5.12
7.61
9.46
10.46
10.49
9.59
7.94
5.82
3.61
1.58
-0.10
-1.37
-2.29
-2.90
-3.27
-3.47
-3.58
-3.70
-3.90
-4.18
-4.50
-4.77
-4.87
-4.69
-4.13
-3.11
-1.65
0.11
1.92
3.50
4.68
5.40
5.79
5.99
6.11
6.09
5.83
5.21
4.24
3.03
1.75
0.58
-0.39
-1.15
-1.76
-2.25
-2.70
-3.10
-3.46
-3.78
-4.03
-4.23
-4.46
-4.79
-5.26
-5.82
-6.26
-6.33
-5.79
-4.60
-2.86
-0.82
1.28
3.27
5.02
6.46
7.44
7.83
7.48
6.41
4.79
2.95
1.22
-0.16
-1.10
-1.66
-1.97
-2.16
-2.33
-2.52
-2.74
-3.02
-3.30
-3.54
-3.62
-3.39
-2.73
-1.59
-0.05
1.70
3.39
4.80
5.80
6.40
6.66
6.66
6.44
5.97
5.19
4.10
2.77
1.33
-0.04
-1.21
-2.09
-2.71
-3.15
-3.54
-4.01
-4.57
-5.16
-5.63
-5.86
-5.78
-5.47
-5.04
-4.63
-4.29
-4.00
-3.66
-3.17
-2.46
-1.46
-0.12
1.56
3.52
5.58
7.47
8.86
9.48
9.17
7.95
6.05
3.82
1.69
-0.02
-1.12
-1.63
-1.75
-1.73
-1.80
-2.05
-2.44
-2.82
-3.08
-3.18
-3.12
-2.97
-2.72
-2.35
-1.79
-1.07
-0.26
0.51
1.15
1.70
2.33
3.19
4.29
5.41
6.18
6.24
5.41
3.78
1.71
-0.32
-1.92
-2.87
-3.18
-2.99
-2.55
-2.04
-1.61
-1.35
-1.29
-1.51
-2.01
-2.79
-3.73
-4.65
-5.32
-5.51
-5.11
-4.14
-2.70
-0.93
1.08
3.28
5.56
7.73
9.45
10.37
10.23
9.02
6.97
4.44
1.84
-0.55
-2.55
-4.08
-5.09
-5.57
-5.61
-5.39
-5.14
-5.04
-5.15
-5.35
-5.46
-5.26
-4.66
-3.71
-2.54
-1.35
-0.30
0.50
1.07
1.53
2.07
2.82
3.78
4.80
5.57
5.79
5.29
4.11
2.52
0.90
-0.38
-1.07
-1.16
-0.85
-0.40
-0.07
-0.00
-0.17
-0.47
-0.83
-1.25
-1.80
-2.57
-3.50
-4.43
-5.04
-5.05
-4.31
-2.80
-0.67
1.85
4.54
7.10
9.23
10.60
10.97
10.26
8.62
6.38
3.93
1.63
-0.35
-1.96
-3.23
-4.16
-4.77
-5.05
-5.08
-5.02
-5.05
-5.30
-5.78
-6.28
-6.54
-6.30
-5.46
-4.10
-2.46
-0.81
0.62
1.77
2.63
3.27
3.74
4.03
4.08
3.84
3.29
2.47
1.46
0.41
-0.55
-1.29
-1.68
-1.69
-1.37
-0.86
-0.36
-0.07
-0.09
-0.40
-0.91
-1.48
-2.04
-2.54
-2.94
-3.25
-3.37
-3.23
-2.71
-1.76
-0.34
1.46
3.51
5.57
7.34
8.51
8.85
8.24
6.81
4.83
2.68
0.70
-0.86
-1.91
-2.49
-2.74
-2.83
-2.88
-2.97
-3.11
-3.30
-3.55
-3.88
-4.26
-4.56
-4.58
-4.11
-3.06
-1.52
0.26
1.95
3.31
4.24
4.80
5.10
5.22
5.16
4.82
4.10
3.01
1.69
0.39
-0.67
-1.33
-1.60
-1.62
-1.61
-1.76
-2.17
-2.78
-3.42
-3.91
-4.14
-4.12
-3.97
-3.83
-3.80
-3.85
-3.84
-3.60
-2.97
-1.87
-0.32
1.63
3.85
6.11
8.13
9.52
9.95
9.27
7.55
5.13
2.51
0.13
-1.72
-2.92
-3.57
-3.83
-3.86
-3.76
-3.60
-3.37
-3.10
-2.83
-2.63
-2.56
-2.56
-2.49
-2.15
-1.38
-0.22
1.13
2.33
3.18
3.62
3.85
4.14
4.62
5.17
5.47
5.15
4.06
2.34
0.41
-1.26
-2.33
-2.72
-2.59
-2.24
-1.94
-1.85
-1.99
-2.30
-2.67
-3.00
-3.27
-3.44
-3.55
-3.60
-3.57
-3.44
-3.12
-2.49
-1.44
0.08
2.02
4.22
6.41
8.26
9.45
9.76
9.13
7.68
5.72
3.62
1.69
0.10
-1.12
-2.09
-2.94
-3.73
-4.43
-4.97
-5.31
-5.45
-5.44
-5.33
-5.11
-4.68
-3.93
-2.82
-1.47
-0.13
0.93
1.56
1.80
1.90
2.12
2.60
3.26
3.86
4.07
3.71
2.80
1.55
0.22
-0.93
-1.77
-2.28
-2.52
-2.60
-2.63
-2.67
-2.72
-2.75
-2.71
-2.59
-2.46
-2.37
-2.36
-2.33
-2.17
-1.73
-0.96
0.12
1.40
2.81
4.29
5.80
7.22
8.31
8.80
8.50
7.38
5.68
3.75
1.94
0.46
-0.69
-1.62
-2.48
-3.34
-4.17
-4.87
-5.34
-5.56
-5.56
-5.41
-5.20
-4.90
-4.40
-3.56
-2.28
-0.64
1.14
2.71
3.80
4.35
4.49
4.48
4.53
4.65
4.66
4.31
3.46
2.14
0.61
-0.86
-2.01
-2.72
-3.00
-2.92
-2.63
-2.33
-2.17
-2.25
-2.57
-3.02
-3.43
-3.67
-3.66
-3.44
-3.08
-2.64
-2.16
-1.63
-1.02
-0.28
0.67
1.85
3.27
4.80
6.19
7.17
7.48
7.03
5.92
4.39
2.77
1.33
0.22
-0.57
-1.15
-1.65
-2.16
-2.65
-3.05
-3.26
-3.25
-3.10
-2.93
-2.84
-2.80
-2.66
-2.26
-1.50
-0.48
0.61
1.55
2.26
2.76
3.19
3.62
4.03
4.26
4.14
3.55
2.56
1.34
0.14
-0.83
-1.51
-1.96
-2.28
-2.55
-2.82
-3.04
-3.18
-3.23
-3.25
-3.26
-3.27
-3.22
-3.07
-2.78
-2.40
-1.97
-1.54
-1.07
-0.48
0.31
1.36
2.65
4.11
5.58
6.84
7.58
7.54
6.60
4.88
2.75
0.70
-0.88
-1.84
-2.30
-2.55
-2.88
-3.37
-3.93
-4.35
-4.44
-4.14
-3.55
-2.84
-2.20
-1.70
-1.30
-0.84
-0.15
0.83
2.04
3.28
4.33
5.04
5.43
5.59
5.64
5.61
5.39
4.82
3.81
2.40
0.82
-0.65
-1.80
-2.56
-3.00
-3.27
-3.52
-3.80
-4.07
-4.25
-4.28
-4.18
-4.04
-4.00
-4.11
-4.32
-4.47
-4.36
-3.84
-2.84
-1.44
0.24
2.06
3.85
5.43
6.60
7.14
6.91
5.94
4.45
2.77
1.25
0.12
-0.61
-1.08
-1.47
-1.91
-2.42
-2.93
-3.36
-3.64
-3.78
-3.80
-3.72
-3.54
-3.21
-2.61
-1.68
-0.43
1.00
2.37
3.42
4.00
4.15
4.05
3.96
4.05
4.26
4.39
4.17
3.45
2.30
0.95
-0.27
-1.15
-1.61
-1.77
-1.82
-1.91
-2.12
-2.39
-2.63
-2.78
-2.87
-2.99
-3.25
-3.63
-3.98
-4.06
-3.62
-2.54
-0.89
1.11
3.13
4.84
5.99
6.44
6.18
5.30
4.02
2.57
1.22
0.13
-0.64
-1.17
-1.60
-2.02
-2.43
-2.74
-2.81
-2.56
-2.02
-1.32
-0.64
-0.03
0.55
1.22
2.06
3.03
3.92
4.50
4.64
4.39
3.94
3.50
3.15
2.79
2.17
1.13
-0.34
-2.01
-3.50
-4.47
-4.81
-4.62
-4.21
-3.86
-3.72
-3.74
-3.77
-3.66
-3.41
-3.10
-2.87
-2.77
-2.71
-2.50
-1.96
-0.98
0.40
2.03
3.70
5.16
6.21
6.69
6.51
5.71
4.42
2.85
1.20
-0.36
-1.72
-2.78
-3.49
-3.84
-3.85
-3.59
-3.18
-2.72
-2.29
-1.94
-1.66
-1.40
-1.08
-0.58
0.15
1.09
2.11
3.03
3.66
3.97
4.05
4.05
4.10
4.19
4.14
3.75
2.85
1.49
-0.10
-1.61
-2.74
-3.35
-3.48
-3.30
-3.03
-2.77
-2.53
-2.22
-1.79
-1.29
-0.88
-0.76
-1.02
-1.58
-2.18
-2.48
-2.23
-1.36
-0.01
1.59
3.19
4.57
5.59
6.16
6.22
5.76
4.82
3.53
2.04
0.54
-0.84
-2.03
-3.02
-3.82
-4.44
-4.83
-4.93
-4.70
-4.11
-3.23
-2.20
-1.16
-0.28
0.38
0.82
1.06
1.18
1.27
1.40
1.65
2.06
2.61
3.21
3.72
4.01
3.98
3.60
2.89
1.91
0.73
-0.54
-1.78
-2.82
-3.52
-3.79
-3.65
-3.22
-2.65
-2.13
-1.77
-1.66
-1.82
-2.18
-2.65
-3.11
-3.43
-3.45
-3.06
-2.14
-0.63
1.41
3.75
6.04
7.83
8.77
8.68
7.62
5.89
3.87
1.89
0.15
-1.30
-2.49
-3.47
-4.27
-4.91
-5.42
-5.85
-6.23
-6.57
-6.82
-6.88
-6.64
-6.04
-5.11
-3.96
-2.79
-1.78
-1.04
-0.63
-0.48
-0.54
-0.71
-0.91
-1.07
-1.13
-1.07
-0.92
-0.77
-0.77
-1.02
-1.54
-2.23
-2.94
-3.51
-3.94
-4.28
-4.65
-5.12
-5.62
-6.05
-6.32
-6.43
-6.47
-6.59
-6.91
-7.50
-8.42
-9.59
-10.88
-11.99
-12.57
-12.31
-11.10
-9.12
-6.79
-4.60
-2.97
-2.05
-1.79
-2.06
-2.70
-3.65
-4.84
-6.10
-7.10
-7.33
-6.31
-3.75
0.15
4.75
9.09
12.22
13.53
12.91
10.65
7.28
3.23
-1.19
-5.82
-10.43
-14.65
-17.97
-19.99
-20.55
-19.79
-18.01
-15.57
-12.74
-9.72
-6.71
-4.02
-2.01
-1.04
-1.42
-3.24
-6.40
-10.60
-15.38
-20.26
-24.84
-28.97
-32.56
-35.33
-36.41
-34.33
-27.55
-15.29
1.54
20.34
37.50
49.83
55.84
56.09
52.64
47.79
43.00
38.56
34.05
29.14
24.09
19.74
16.98
16.17
16.99
18.62
20.21
21.21
21.56
21.55
21.53
21.66
21.90
22.00
21.67
20.70
19.13
17.21
15.41
14.26
14.23
15.51
18.03
21.46
25.37
29.37
33.16
36.59
39.54
41.92
43.66
44.75
45.21
45.10
44.45
43.15
40.98
37.77
33.57
28.80
24.26
20.89
19.37
19.74
21.19
22.14
20.68
15.21
5.03
-9.21
-25.59
-41.47
-54.26
-62.19
-64.76
-62.66
-57.36
-50.46
-43.30
-36.79
-31.53
-27.85
-25.93
-25.64
-26.54
-27.89
-28.87
-28.90
-27.80
-25.78
-23.31
-20.88
-18.83
-17.32
-16.24
-15.37
-14.38
-12.98
-11.05
-8.70
-6.26
-4.18
-2.81
-2.25
-2.27
-2.44
-2.29
-1.54
-0.17
1.54
3.16
4.24
4.39
3.43
1.41
-1.26
-4.00
-6.13
-7.15
-6.90
-5.70
-4.12
-2.81
-2.19
-2.30
-2.88
-3.60
-4.22
-4.71
-5.13
-5.55
-5.93
-6.12
-5.95
-5.32
-4.24
-2.77
-0.97
1.08
3.28
5.35
6.90
7.50
6.90
5.20
2.88
0.58
-1.14
-2.06
-2.33
-2.34
-2.44
-2.83
-3.44
-4.12
-4.69
-5.12
-5.41
-5.59
-5.60
-5.33
-4.64
-3.45
-1.84
0.01
1.78
3.24
4.27
4.95
5.52
6.21
7.05
7.82
8.14
7.69
6.37
4.45
2.39
0.66
-0.48
-1.03
-1.15
-1.10
-1.08
-1.21
-1.57
-2.16
-2.92
-3.73
-4.46
-5.02
-5.38
-5.58
-5.62
-5.47
-5.07
-4.36
-3.35
-2.11
-0.68
0.90
2.61
4.32
5.80
6.73
6.90
6.30
5.21
4.08
3.30
3.02
3.10
3.18
2.92
2.18
1.02
-0.31
-1.56
-2.58
-3.38
-4.01
-4.53
-4.87
-4.86
-4.33
-3.18
-1.50
0.42
2.20
3.54
4.33
4.68
4.81
4.90
4.96
4.85
4.37
3.42
2.10
0.67
-0.56
-1.35
-1.69
-1.74
-1.73
-1.87
-2.26
-2.85
-3.50
-4.06
-4.41
-4.53
-4.44
-4.25
-4.06
-3.92
-3.81
-3.63
-3.25
-2.59
-1.61
-0.38
1.05
2.60
4.16
5.59
6.62
7.00
6.54
5.31
3.60
1.90
0.61
-0.06
-0.19
-0.07
-0.00
-0.20
-0.71
-1.44
-2.27
-3.08
-3.77
-4.26
-4.48
-4.39
-3.97
-3.23
-2.21
-0.98
0.35
1.65
2.80
3.75
4.53
5.19
5.79
6.26
6.43
6.10
5.22
3.92
2.55
1.45
0.83
0.63
0.56
0.29
-0.38
-1.43
-2.65
-3.74
-4.51
-4.97
-5.26
-5.61
-6.19
-6.96
-7.75
-8.26
-8.23
-7.53
-6.18
-4.28
-1.97
0.61
3.29
5.77
7.65
8.56
8.34
7.18
5.59
4.18
3.42
3.41
3.84
4.24
4.17
3.43
2.10
0.46
-1.18
-2.53
-3.46
-3.92
-3.97
-3.69
-3.16
-2.43
-1.51
-0.43
0.73
1.86
2.82
3.55
4.09
4.55
4.99
5.32
5.33
4.76
3.50
1.73
-0.09
-1.49
-2.13
-2.05
-1.62
-1.28
-1.39
-1.98
-2.88
-3.81
-4.57
-5.14
-5.56
-5.91
-6.16
-6.26
-6.14
-5.78
-5.24
-4.56
-3.74
-2.74
-1.48
0.08
1.86
3.67
5.22
6.17
6.28
5.52
4.14
2.59
1.38
0.84
0.95
1.43
1.81
1.72
1.06
-0.02
-1.19
-2.15
-2.69
-2.76
-2.42
-1.81
-1.04
-0.26
0.45
1.03
1.46
1.79
2.10
2.50
3.06
3.80
4.63
5.35
5.73
5.53
4.68
3.29
1.64
0.09
-1.09
-1.81
-2.18
-2.43
-2.71
-3.11
-3.54
-3.89
-4.06
-4.07
-4.01
-3.98
-4.07
-4.23
-4.40
-4.49
-4.45
-4.24
-3.85
-3.19
-2.18
-0.72
1.15
3.25
5.21
6.60
7.08
6.60
5.41
3.96
2.77
2.12
2.02
2.15
2.12
1.60
0.51
-0.96
-2.49
-3.73
-4.48
-4.68
-4.38
-3.69
-2.72
-1.55
-0.24
1.10
2.34
3.35
4.07
4.52
4.82
5.08
5.34
5.53
5.42
4.80
3.58
1.89
0.06
-1.47
-2.34
-2.45
-1.99
-1.34
-0.91
-0.96
-1.55
-2.50
-3.57
-4.50
-5.16
-5.47
-5.48
-5.26
-4.92
-4.51
-4.07
-3.63
-3.21
-2.79
-2.33
-1.73
-0.86
0.35
1.85
3.40
4.69
5.36
5.24
4.43
3.26
2.19
1.56
1.49
1.80
2.15
2.21
1.78
0.88
-0.33
-1.60
-2.71
-3.48
-3.86
-3.80
-3.30
-2.39
-1.12
0.37
1.89
3.19
4.09
4.51
4.51
4.27
3.97
3.71
3.45
3.04
2.35
1.36
0.27
-0.64
-1.08
-0.99
-0.53
-0.06
0.09
-0.28
-1.12
-2.23
-3.31
-4.15
-4.68
-4.92
-4.98
-4.93
-4.79
-4.53
-4.15
-3.66
-3.08
-2.43
-1.67
-0.71
0.52
1.99
3.53
4.86
5.64
5.71
5.09
4.06
3.02
2.31
2.09
2.28
2.62
2.81
2.56
1.75
0.45
-1.12
-2.63
-3.78
-4.38
-4.40
-3.95
-3.19
-2.26
-1.26
-0.25
0.72
1.56
2.20
2.64
2.95
3.25
3.64
4.07
4.41
4.42
3.93
2.89
1.46
-0.05
-1.29
-2.00
-2.15
-1.89
-1.52
-1.32
-1.44
-1.84
-2.37
-2.86
-3.22
-3.44
-3.57
-3.66
-3.67
-3.55
-3.30
-2.92
-2.52
-2.14
-1.76
-1.26
-0.49
0.61
1.93
3.18
4.03
4.28
3.94
3.25
2.57
2.19
2.19
2.44
2.63
2.46
1.76
0.56
-0.94
-2.43
-3.61
-4.32
-4.52
-4.32
-3.84
-3.16
-2.30
-1.24
-0.02
1.24
2.35
3.14
3.57
3.78
4.00
4.39
4.92
5.33
5.27
4.53
3.15
1.46
-0.11
-1.17
-1.58
-1.43
-1.00
-0.60
-0.50
-0.80
-1.49
-2.42
-3.35
-4.07
-4.46
-4.52
-4.39
-4.23
-4.13
-4.05
-3.89
-3.57
-3.11
-2.58
-1.99
-1.24
-0.18
1.27
2.96
4.47
5.33
5.25
4.31
2.97
1.80
1.22
1.28
1.71
2.11
2.18
1.81
1.11
0.21
-0.76
-1.71
-2.58
-3.30
-3.76
-3.85
-3.47
-2.59
-1.26
0.32
1.86
3.04
3.68
3.81
3.72
3.77
4.16
4.82
5.40
5.47
4.77
3.42
1.79
0.37
-0.53
-0.85
-0.81
-0.69
-0.74
-1.06
-1.62
-2.31
-3.00
-3.59
-4.01
-4.27
-4.43
-4.53
-4.62
-4.65
-4.58
-4.35
-3.98
-3.53
-3.00
-2.36
-1.48
-0.26
1.27
2.88
4.21
4.89
4.77
3.99
2.97
2.17
1.90
2.13
2.57
2.81
2.52
1.63
0.31
-1.09
-2.24
-2.94
-3.16
-3.01
-2.66
-2.21
-1.69
-1.08
-0.39
0.36
1.06
1.62
2.06
2.45
2.93
3.57
4.28
4.81
4.81
4.09
2.68
0.93
-0.65
-1.60
-1.72
-1.17
-0.32
0.40
0.70
0.50
-0.11
-0.96
-1.87
-2.78
-3.65
-4.48
-5.22
-5.80
-6.13
-6.15
-5.89
-5.45
-4.96
-4.48
-3.89
-2.97
-1.55
0.35
2.42
4.15
5.09
5.05
4.26
3.21
2.46
2.34
2.87
3.75
4.53
4.81
4.33
3.06
1.21
-0.90
-2.81
-4.14
-4.67
-4.35
-3.33
-1.82
-0.09
1.61
3.02
3.90
4.17
3.89
3.37
2.96
2.95
3.36
3.94
4.30
4.13
3.35
2.16
0.90
-0.10
-0.72
-0.99
-1.09
-1.22
-1.52
-2.07
-2.87
-3.84
-4.87
-5.78
-6.43
-6.70
-6.62
-6.29
-5.84
-5.35
-4.84
-4.24
-3.52
-2.66
-1.66
-0.51
0.82
2.33
3.92
5.38
6.40
6.74
6.34
5.39
4.26
3.30
2.74
2.55
2.52
2.40
2.00
1.30
0.38
-0.63
-1.60
-2.46
-3.17
-3.66
-3.85
-3.64
-3.01
-2.04
-0.90
0.21
1.16
1.94
2.62
3.32
4.06
4.82
5.45
5.78
5.68
5.05
3.92
2.43
0.82
-0.60
-1.60
-2.10
-2.25
-2.30
-2.56
-3.17
-4.04
-4.95
-5.66
-6.07
-6.19
-6.18
-6.15
-6.09
-5.90
-5.44
-4.62
-3.43
-1.96
-0.30
1.43
3.12
4.57
5.58
5.96
5.64
4.77
3.66
2.65
1.99
1.73
1.72
1.72
1.50
0.91
-0.10
-1.45
-3.01
-4.58
-5.86
-6.58
-6.48
-5.51
-3.82
-1.87
-0.26
0.48
0.08
-1.22
-2.74
-3.61
-3.22
-1.61
0.44
1.62
0.68
-2.91
-8.59
-14.79
-19.50
-21.29
-19.93
-16.75
-14.01
-14.01
-17.88
-24.96
-33.03
-39.16
-41.08
-38.19
-31.93
-25.04
-20.74
-21.44
-27.98
-39.10
-51.37
-59.34
-56.49
-37.04
1.53
56.22
117.80
172.75
207.49
213.40
190.08
145.39
91.96
42.10
3.64
-21.45
-35.50
-42.18
-44.12
-42.36
-37.42
-30.57
-24.22
-20.80
-21.22
-24.08
-26.32
-24.84
-18.46
-8.79
0.49
5.33
3.25
-5.47
-17.83
-29.45
-36.31
-36.41
-30.46
-21.35
-13.06
-9.06
-11.20
-19.36
-31.35
-43.08
-49.00
-43.09
-20.99
17.32
65.68
112.38
143.91
150.43
130.27
90.82
45.18
6.23
-18.67
-29.44
-31.25
-30.19
-29.70
-29.66
-28.07
-23.67
-17.56
-12.62
-11.51
-14.78
-20.34
-24.44
-23.85
-17.60
-7.48
2.68
8.89
8.72
2.29
-7.92
-18.10
-24.74
-25.91
-21.89
-14.88
-7.95
-3.75
-3.51
-6.89
-12.48
-18.69
-23.90
-26.26
-23.40
-12.95
5.89
30.78
55.88
73.57
77.71
66.74
44.66
19.23
-1.74
-13.84
-17.30
-15.67
-13.07
-11.86
-12.01
-12.18
-11.39
-9.88
-8.83
-9.16
-10.74
-12.20
-11.81
-8.48
-2.57
4.18
9.48
11.52
9.74
4.97
-1.08
-6.60
-10.33
-11.85
-11.46
-9.84
-7.73
-5.76
-4.34
-3.63
-3.59
-4.01
-4.66
-5.33
-5.85
-6.07
-5.67
-4.15
-0.96
4.08
10.48
16.96
21.83
23.70
22.06
17.55
11.54
5.49
0.31
-3.78
-6.96
-9.38
-10.88
-11.12
-10.02
-8.00
-5.97
-4.91
-5.38
-7.24
-9.77
-11.91
-12.73
-11.77
-9.11
-5.34
-1.30
2.17
4.59
5.89
6.38
6.34
5.82
4.45
1.75
-2.47
-7.68
-12.57
-15.56
-15.52
-12.38
-7.26
-2.07
1.34
1.81
-0.91
-6.27
-13.04
-19.08
-21.32
-16.47
-2.61
19.10
43.68
63.65
72.07
65.86
47.46
23.71
2.47
-11.03
-16.08
-15.77
-14.32
-14.46
-16.36
-18.45
-19.15
-18.10
-16.04
-13.85
-11.75
-9.10
-5.05
0.54
6.70
11.65
13.81
12.57
8.69
3.82
-0.27
-2.42
-2.41
-0.83
1.33
3.11
3.70
2.59
-0.31
-4.48
-8.58
-10.72
-9.00
-2.52
7.91
19.70
29.32
33.64
31.27
23.08
11.73
0.44
-8.32
-13.58
-15.80
-16.16
-15.85
-15.53
-15.34
-15.21
-15.13
-15.20
-15.52
-16.03
-16.32
-15.80
-13.93
-10.53
-5.94
-1.00
3.21
5.66
5.65
3.05
-1.70
-7.60
-13.26
-17.22
-18.39
-16.47
-12.13
-6.95
-2.84
-1.49
-3.90
-10.21
-19.47
-29.43
-36.41
-35.89
-23.81
1.40
37.00
75.72
107.63
123.78
119.81
97.82
65.28
31.71
4.73
-12.36
-20.55
-23.18
-23.40
-22.80
-21.47
-19.18
-16.42
-14.42
-14.36
-16.29
-18.63
-18.93
-15.26
-7.43
2.73
12.07
17.53
17.51
12.44
4.40
-3.88
-10.11
-13.13
-13.00
-10.67
-7.43
-4.42
-2.37
-1.54
-1.76
-2.63
-3.74
-4.69
-5.24
-5.21
-4.55
-3.26
-1.45
0.73
3.03
5.17
6.83
7.78
7.86
7.16
5.86
4.22
2.46
0.68
-1.08
-2.80
-4.38
-5.67
-6.49
-6.79
-6.65
-6.28
-5.90
-5.67
-5.58
-5.53
-5.38
-5.01
-4.40
-3.57
-2.61
-1.61
-0.66
0.15
0.75
1.16
1.45
1.72
2.09
2.57
3.09
3.49
3.59
3.29
2.56
1.53
0.39
-0.64
-1.38
-1.80
-1.99
-2.16
-2.48
-3.03
-3.74
-4.42
-4.93
-5.20
-5.30
-5.38
-5.55
-5.81
-6.04
-6.06
-5.75
-5.07
-4.05
-2.71
-1.09
0.74
2.63
4.27
5.35
5.61
5.03
3.81
2.27
0.72
-0.67
-1.92
-3.12
-4.33
-5.53
-6.62
-7.51
-8.16
-8.61
-8.95
-9.26
-9.64
-10.14
-10.76
-11.43
-12.02
-12.31
-12.09
-11.22
-9.73
-7.79
-5.65
-3.51
-1.46
0.54
2.55
4.59
6.49
7.95
8.67
8.41
7.19
5.23
2.88
0.44
-1.98
-4.52
-7.39
-10.73
-14.42
-18.08
-21.16
-23.23
-24.15
-24.22
-24.08
-24.47
-25.98
-28.68
-32.15
-35.52
-37.90
-38.72
-37.94
-36.05
-33.74
-31.57
-29.89
-28.77
-28.11
-27.39
-25.61
-21.35
-13.22
-0.69
15.35
32.54
47.84
58.78
64.42
65.58
64.16
61.98
60.01
58.16
55.90
52.96
49.69
46.80
44.77
43.25
41.08
36.77
29.19
18.36
5.53
-7.21
-17.77
-24.87
-28.51
-29.82
-30.40
-31.55
-33.72
-36.40
-38.58
-39.37
-38.53
-36.69
-35.09
-35.11
-37.58
-42.44
-48.75
-55.09
-60.25
-63.69
-65.81
-67.62
-70.31
-74.85
-81.83
-91.30
-102.55
-113.68
-121.28
-120.94
-108.59
-82.37
-44.00
1.19
45.86
83.31
109.68
124.77
131.14
132.21
130.43
126.71
120.81
112.45
102.10
91.08
80.96
72.93
67.24
63.27
60.01
56.60
52.81
49.07
46.12
44.61
44.63
45.60
46.50
46.25
44.19
40.36
35.44
30.45
26.32
23.56
22.13
21.60
21.49
21.61
22.21
23.85
27.00
31.77
37.72
43.89
49.14
52.41
53.01
50.76
45.95
39.37
32.08
25.24
19.88
16.57
15.32
15.46
15.78
14.84
11.38
4.70
-5.04
-16.80
-28.84
-39.31
-46.77
-50.65
-51.30
-49.75
-47.24
-44.81
-43.09
-42.29
-42.41
-43.36
-45.07
-47.52
-50.66
-54.32
-58.21
-61.85
-64.72
-66.40
-66.78
-66.15
-65.06
-64.05
-63.32
-62.49
-60.85
-57.81
-53.40
-48.44
-44.32
-42.39
-43.37
-47.15
-52.99
-59.74
-66.00
-69.99
-69.48
-62.16
-46.43
-22.42
7.56
39.39
68.38
90.92
105.54
113.01
115.54
115.60
115.02
114.61
114.52
114.59
114.71
114.93
115.43
116.43
117.87
119.17
119.05
115.86
108.16
95.65
79.57
62.63
48.07
38.38
34.57
36.10
41.66
50.02
60.15
70.56
78.44
79.68
70.12
47.66
13.99
-25.46
-63.37
-93.30
-112.02
-120.07
-120.48
-116.73
-111.11
-104.33
-96.31
-87.16
-77.67
-68.95
-61.79
-56.11
-51.11
-45.73
-39.28
-31.76
-23.83
-16.49
-10.62
-6.68
-4.58
-3.76
-3.41
-2.83
-1.79
-0.71
-0.61
-2.60
-7.31
-14.42
-22.60
-30.05
-35.14
-37.15
-36.43
-34.09
-31.39
-29.16
-27.55
-26.23
-24.70
-22.71
-20.33
-17.86
-15.55
-13.49
-11.59
-9.67
-7.65
-5.65
-3.99
-3.04
-3.00
-3.77
-4.94
-5.95
-6.28
-5.67
-4.24
-2.39
-0.65
0.59
1.26
1.55
1.86
2.46
3.42
4.48
5.26
5.41
4.84
3.69
2.26
0.86
-0.38
-1.50
-2.65
-3.99
-5.58
-7.34
-9.15
-10.89
-12.47
-13.87
-15.06
-16.04
-16.83
-17.50
-18.14
-18.82
-19.54
-20.22
-20.72
-20.96
-20.98
-20.93
-20.97
-21.17
-21.37
-21.19
-20.24
-18.31
-15.57
-12.55
-9.96
-8.37
-7.93
-8.32
-9.06
-9.72
-10.02
-9.64
-7.94
-3.89
3.50
14.47
27.95
41.51
52.21
57.78
57.54
52.59
45.13
37.27
30.26
24.22
18.65
13.16
7.85
3.29
0.06
-1.68
-2.40
-2.95
-4.12
-6.29
-9.26
-12.50
-15.43
-17.74
-19.52
-21.14
-23.06
-25.58
-28.76
-32.39
-36.18
-39.85
-43.21
-46.15
-48.63
-50.57
-51.86
-52.51
-52.73
-52.96
-53.52
-54.17
-53.95
-51.45
-45.62
-36.47
-25.31
-14.20
-5.00
1.46
5.50
8.10
10.20
12.33
14.86
18.36
23.77
31.90
42.73
54.91
66.07
73.79
76.66
74.88
69.85
63.48
57.27
51.94
47.51
43.67
40.13
36.80
33.73
30.98
28.55
26.38
24.37
22.48
20.74
19.21
18.00
17.16
16.64
16.28
15.82
15.05
13.88
12.42
10.93
9.67
8.69
7.80
6.62
4.77
2.13
-1.08
-4.38
-7.19
-9.12
-10.05
-10.15
-9.74
-9.10
-8.39
-7.58
-6.64
-5.51
-4.29
-3.14
-2.23
-1.65
-1.36
-1.19
-0.99
-0.62
-0.08
0.57
1.27
2.02
2.86
3.86
4.98
6.12
7.05
7.58
7.57
7.03
6.17
5.33
4.90
5.18
6.26
7.94
9.78
11.30
12.18
12.47
12.67
13.48
15.50
18.91
23.24
27.56
30.85
32.52
32.69
32.20
32.26
33.87
37.37
42.32
47.71
52.49
55.94
58.04
59.31
60.61
62.84
66.81
73.08
81.74
91.91
101.39
106.65
103.70
89.67
64.36
30.89
-5.05
-37.27
-61.26
-75.62
-81.83
-82.77
-81.07
-77.97
-73.60
-67.74
-60.83
-54.02
-48.72
-45.65
-44.39
-43.55
-41.45
-37.10
-30.64
-23.51
-17.82
-15.60
-17.99
-24.81
-34.61
-45.21
-54.45
-60.92
-64.24
-64.97
-64.13
-62.60
-60.82
-58.72
-55.94
-52.20
-47.46
-41.87
-35.63
-28.83
-21.46
-13.57
-5.42
2.41
9.24
14.49
17.94
19.71
20.15
19.59
18.26
16.31
13.99
11.73
10.08
9.52
10.18
11.78
13.69
15.25
15.98
15.76
14.75
13.23
11.47
9.58
7.62
5.60
3.62
1.85
0.48
-0.37
-0.66
-0.49
-0.02
0.58
1.11
1.44
1.44
1.01
0.19
-0.86
-1.86
-2.46
-2.41
-1.65
-0.39
0.98
2.06
2.58
2.48
1.90
1.04
0.05
-1.03
-2.25
-3.64
-5.16
-6.64
-7.89
-8.75
-9.21
-9.38
-9.40
-9.37
-9.25
-8.90
-8.16
-6.93
-5.28
-3.42
-1.60
-0.09
0.96
1.51
1.61
1.38
0.98
0.57
0.26
0.14
0.18
0.33
0.51
0.64
0.69
0.63
0.39
-0.05
-0.71
-1.52
-2.35
-3.04
-3.48
-3.68
-3.71
-3.67
-3.61
-3.51
-3.32
-3.03
-2.65
-2.24
-1.81
-1.31
-0.71
0.03
0.80
1.49
1.95
2.14
2.12
2.07
2.14
2.42
2.82
3.15
3.22
2.89
2.22
1.37
0.55
-0.07
-0.47
-0.73
-0.96
-1.26
-1.59
-1.89
-2.05
-2.05
-1.92
-1.74
-1.55
-1.37
-1.14
-0.83
-0.37
0.25
1.00
1.80
2.48
2.85
2.75
2.17
1.26
0.28
-0.52
-0.98
-1.09
-0.95
-0.70
-0.43
-0.23
-0.13
-0.23
-0.60
-1.28
-2.20
-3.17
-4.01
-4.56
-4.78
-4.76
-4.62
-4.52
-4.56
-4.76
-5.05
-5.37
-5.63
-5.80
-5.93
-6.09
-6.33
-6.67
-7.03
-7.29
-7.36
-7.24
-7.05
-6.97
-7.15
-7.64
-8.34
-9.03
-9.49
-9.58
-9.26
-8.58
-7.66
-6.61
-5.51
-4.39
-3.23
-1.94
-0.38
1.65
4.33
7.66
11.45
15.28
18.62
21.01
22.22
22.31
21.64
20.71
19.99
19.70
19.76
19.80
19.38
18.20
16.31
14.12
12.17
10.94
10.57
10.83
11.24
11.32
10.80
9.72
8.30
6.86
5.57
4.41
3.19
1.74
-0.05
-2.12
-4.26
-6.20
-7.74
-8.79
-9.40
-9.68
-9.68
-9.36
-8.66
-7.54
-6.13
-4.69
-3.50
-2.79
-2.60
-2.79
-3.10
-3.33
-3.36
-3.25
-3.13
-3.16
-3.39
-3.81
-4.34
-4.88
-5.34
-5.66
-5.82
-5.79
-5.59
-5.26
-4.82
-4.33
-3.81
-3.28
-2.75
-2.23
-1.72
-1.22
-0.74
-0.25
0.25
0.77
1.26
1.67
1.91
1.94
1.75
1.41
1.03
0.70
0.52
0.51
0.62
0.79
0.94
0.99
0.90
0.66
0.30
-0.13
-0.52
-0.80
-0.89
-0.77
-0.50
-0.16
0.16
0.41
0.59
0.75
0.91
1.06
1.16
1.17
1.09
0.98
0.93
1.00
1.19
1.41
1.52
1.46
1.19
0.75
0.19
-0.45
-1.11
-1.76
-2.31
-2.68
-2.82
-2.76
-2.63
-2.63
-2.94
-3.63
-4.69
-5.97
-7.30
-8.49
-9.43
-10.05
-10.37
-10.43
-10.29
-10.01
-9.63
-9.18
-8.74
-8.37
-8.15
-8.09
-8.17
-8.30
-8.39
-8.28
-7.83
-6.91
-5.49
-3.64
-1.54
0.53
2.34
3.76
4.76
5.36
5.60
5.52
5.25
5.04
5.30
6.38
8.46
11.34
14.51
17.33
19.33
20.33
20.51
20.26
19.96
19.77
19.62
19.15
17.94
15.64
12.12
7.54
2.35
-2.93
-7.78
-11.87
-15.05
-17.29
-18.60
-19.02
-18.60
-17.51
-16.05
-14.52
-13.15
-11.94
-10.70
-9.20
-7.35
-5.30
-3.36
-1.88
-1.07
-0.90
-1.19
-1.74
-2.40
-3.06
-3.59
-3.78
-3.42
-2.44
-0.97
0.69
2.15
3.15
3.58
3.50
3.05
2.33
1.40
0.22
-1.24
-3.00
-4.97
-6.94
-8.58
-9.53
-9.55
-8.63
-7.07
-5.36
-4.01
-3.39
-3.60
-4.43
-5.45
-6.08
-5.73
-3.92
-0.54
4.09
9.24
13.97
17.43
19.09
18.92
17.26
14.61
11.54
8.51
5.87
3.86
2.64
2.22
2.48
3.22
4.18
5.18
6.15
7.02
7.74
8.16
8.06
7.29
5.89
4.13
2.48
1.43
1.33
2.26
4.05
6.42
9.07
11.74
14.15
15.96
16.77
16.30
14.51
11.73
8.51
5.49
3.08
1.39
0.22
-0.73
-1.66
-2.58
-3.35
-3.79
-3.81
-3.52
-3.02
-2.46
-1.84
-1.15
-0.41
0.29
0.76
0.86
0.57
0.06
-0.39
-0.52
-0.19
0.49
1.25
1.71
1.54
0.49
-1.47
-4.21
-7.42
-10.74
-13.77
-16.18
-17.75
-18.39
-18.15
-17.19
-15.73
-14.01
-12.15
-10.17
-8.01
-5.67
-3.24
-0.99
0.73
1.60
1.42
0.15
-2.04
-4.73
-7.27
-8.92
-8.99
-7.19
-3.73
0.64
4.93
8.27
10.16
10.60
9.89
8.40
6.41
4.07
1.52
-1.05
-3.41
-5.38
-6.88
-7.94
-8.58
-8.77
-8.41
-7.43
-5.86
-3.88
-1.71
0.41
2.33
3.97
5.26
6.11
6.46
6.24
5.52
4.46
3.30
2.23
1.35
0.63
-0.09
-1.00
-2.29
-4.00
-6.05
-8.15
-10.00
-11.27
-11.82
-11.74
-11.29
-10.81
-10.61
-10.76
-11.13
-11.41
-11.27
-10.46
-8.95
-6.89
-4.68
-2.85
-1.97
-2.40
-4.13
-6.69
-9.34
-11.42
-12.72
-13.65
-15.06
-17.76
-22.07
-27.49
-32.89
-37.01
-38.97
-38.62
-36.48
-33.46
-30.53
-28.68
-28.73
-31.05
-34.97
-38.52
-38.78
-33.05
-20.36
-2.44
16.55
31.68
39.27
38.44
31.21
21.19
11.74
4.66
-0.03
-3.34
-6.35
-9.68
-13.60
-18.41
-24.58
-32.28
-40.48
-46.69
-47.29
-39.03
-20.71
5.75
35.62
62.96
82.86
93.03
94.24
89.32
81.59
73.55
66.38
60.34
55.44
51.84
49.73
48.77
47.87
45.30
39.43
29.57
16.55
2.56
-9.74
-18.31
-22.52
-23.20
-21.98
-20.37
-19.05
-17.75
-15.75
-12.50
-8.05
-3.05
1.61
5.24
7.61
9.08
10.43
12.38
15.25
18.73
22.16
25.12
28.01
32.17
39.37
50.81
66.28
83.94
101.16
115.61
126.21
133.07
136.70
137.28
134.45
127.96
118.33
107.00
95.74
85.85
77.54
69.90
61.63
51.67
39.57
25.26
8.67
-10.42
-31.97
-55.19
-78.22
-98.45
-113.33
-121.36
-122.52
-118.27
-110.91
-102.73
-95.27
-89.06
-83.69
-78.57
-73.33
-68.14
-63.40
-59.35
-55.77
-52.05
-47.46
-41.58
-34.68
-27.62
-21.49
-17.18
-14.95
-14.35
-14.46
-14.35
-13.48
-11.83
-9.85
-8.05
-6.74
-5.93
-5.43
-5.08
-4.87
-4.92
-5.41
-6.33
-7.44
-8.35
-8.69
-8.21
-6.96
-5.19
-3.31
-1.71
-0.68
-0.30
-0.41
-0.74
-0.99
-0.94
-0.62
-0.22
-0.03
-0.28
